0.000,-0.265
0.004,-0.320
0.008,-0.335
0.012,-0.335
0.016,-0.335
0.020,-0.340
0.024,-0.345
0.028,-0.330
0.032,-0.315
0.036,-0.310
0.040,-0.305
0.044,-0.300
0.048,-0.295
0.052,-0.295
0.056,-0.295
0.060,-0.285
0.064,-0.275
0.068,-0.270
0.072,-0.265
0.076,-0.260
0.080,-0.255
0.084,-0.255
0.088,-0.250
0.092,-0.240
0.096,-0.230
0.100,-0.220
0.104,-0.215
0.108,-0.210
0.112,-0.205
0.116,-0.200
0.120,-0.190
0.124,-0.180
0.128,-0.170
0.132,-0.160
0.136,-0.155
0.140,-0.150
0.144,-0.135
0.148,-0.120
0.152,-0.110
0.156,-0.100
0.160,-0.085
0.164,-0.070
0.168,-0.050
0.172,-0.035
0.176,-0.020
0.180,-0.005
0.184,0.010
0.188,0.025
0.192,0.040
0.196,0.055
0.200,0.065
0.204,0.075
0.208,0.085
0.212,0.095
0.216,0.095
0.220,0.095
0.224,0.105
0.228,0.110
0.232,0.095
0.236,0.080
0.240,0.060
0.244,0.040
0.248,0.020
0.252,-0.005
0.256,-0.030
0.260,-0.055
0.264,-0.080
0.268,-0.105
0.272,-0.125
0.276,-0.140
0.280,-0.160
0.284,-0.170
0.288,-0.180
0.292,-0.185
0.296,-0.185
0.300,-0.185
0.304,-0.190
0.308,-0.195
0.312,-0.200
0.316,-0.205
0.320,-0.200
0.324,-0.195
0.328,-0.195
0.332,-0.195
0.336,-0.205
0.340,-0.200
0.344,-0.195
0.348,-0.195
0.352,-0.195
0.356,-0.200
0.360,-0.205
0.364,-0.205
0.368,-0.205
0.372,-0.200
0.376,-0.195
0.380,-0.195
0.384,-0.195
0.388,-0.195
0.392,-0.195
0.396,-0.200
0.400,-0.205
0.404,-0.200
0.408,-0.195
0.412,-0.200
0.416,-0.205
0.420,-0.205
0.424,-0.205
0.428,-0.200
0.432,-0.195
0.436,-0.200
0.440,-0.205
0.444,-0.200
0.448,-0.195
0.452,-0.200
0.456,-0.205
0.460,-0.210
0.464,-0.210
0.468,-0.200
0.472,-0.195
0.476,-0.195
0.480,-0.195
0.484,-0.195
0.488,-0.195
0.492,-0.195
0.496,-0.195
0.500,-0.195
0.504,-0.190
0.508,-0.185
0.512,-0.190
0.516,-0.195
0.520,-0.195
0.524,-0.195
0.528,-0.195
0.532,-0.195
0.536,-0.190
0.540,-0.185
0.544,-0.190
0.548,-0.195
0.552,-0.195
0.556,-0.195
0.560,-0.195
0.564,-0.195
0.568,-0.195
0.572,-0.195
0.576,-0.190
0.580,-0.185
0.584,-0.190
0.588,-0.195
0.592,-0.190
0.596,-0.185
0.600,-0.185
0.604,-0.185
0.608,-0.180
0.612,-0.175
0.616,-0.180
0.620,-0.185
0.624,-0.180
0.628,-0.175
0.632,-0.170
0.636,-0.165
0.640,-0.165
0.644,-0.165
0.648,-0.170
0.652,-0.170
0.656,-0.160
0.660,-0.155
0.664,-0.150
0.668,-0.160
0.672,-0.175
0.676,-0.180
0.680,-0.185
0.684,-0.165
0.688,-0.145
0.692,-0.115
0.696,-0.085
0.700,-0.090
0.704,-0.095
0.708,-0.085
0.712,-0.075
0.716,-0.060
0.720,-0.050
0.724,-0.075
0.728,-0.100
0.732,-0.120
0.736,-0.135
0.740,-0.135
0.744,-0.135
0.748,-0.125
0.752,-0.120
0.756,-0.130
0.760,-0.140
0.764,-0.155
0.768,-0.165
0.772,-0.170
0.776,-0.175
0.780,-0.175
0.784,-0.175
0.788,-0.170
0.792,-0.165
0.796,-0.170
0.800,-0.175
0.804,-0.170
0.808,-0.155
0.812,-0.140
0.816,-0.140
0.820,-0.150
0.824,-0.395
0.828,-0.655
0.832,-0.885
0.836,-1.115
0.840,-0.855
0.844,-0.550
0.848,0.490
0.852,1.505
0.856,2.255
0.860,2.910
0.864,3.005
0.868,3.065
0.872,2.960
0.876,2.645
0.880,1.725
0.884,0.880
0.888,0.210
0.892,-0.240
0.896,-0.265
0.900,-0.275
0.904,-0.240
0.908,-0.225
0.912,-0.255
0.916,-0.285
0.920,-0.310
0.924,-0.330
0.928,-0.340
0.932,-0.345
0.936,-0.345
0.940,-0.345
0.944,-0.340
0.948,-0.335
0.952,-0.330
0.956,-0.325
0.960,-0.325
0.964,-0.325
0.968,-0.320
0.972,-0.310
0.976,-0.300
0.980,-0.295
0.984,-0.290
0.988,-0.280
0.992,-0.270
0.996,-0.265
1.000,-0.265
1.004,-0.250
1.008,-0.245
1.012,-0.240
1.016,-0.235
1.020,-0.230
1.024,-0.225
1.028,-0.220
1.032,-0.215
1.036,-0.200
1.040,-0.185
1.044,-0.180
1.048,-0.175
1.052,-0.165
1.056,-0.155
1.060,-0.145
1.064,-0.135
1.068,-0.125
1.072,-0.115
1.076,-0.105
1.080,-0.095
1.084,-0.080
1.088,-0.070
1.092,-0.055
1.096,-0.035
1.100,-0.005
1.104,0.010
1.108,0.020
1.112,0.035
1.116,0.050
1.120,0.065
1.124,0.080
1.128,0.095
1.132,0.110
1.136,0.115
1.140,0.115
1.144,0.120
1.148,0.130
1.152,0.130
1.156,0.120
1.160,0.100
1.164,0.080
1.168,0.050
1.172,0.025
1.176,0.000
1.180,-0.025
1.184,-0.045
1.188,-0.065
1.192,-0.085
1.196,-0.105
1.200,-0.115
1.204,-0.125
1.208,-0.140
1.212,-0.155
1.216,-0.160
1.220,-0.165
1.224,-0.165
1.228,-0.165
1.232,-0.170
1.236,-0.175
1.240,-0.170
1.244,-0.165
1.248,-0.165
1.252,-0.165
1.256,-0.170
1.260,-0.175
1.264,-0.175
1.268,-0.175
1.272,-0.180
1.276,-0.185
1.280,-0.185
1.284,-0.185
1.288,-0.180
1.292,-0.175
1.296,-0.175
1.300,-0.175
1.304,-0.175
1.308,-0.175
1.312,-0.175
1.316,-0.175
1.320,-0.170
1.324,-0.170
1.328,-0.180
1.332,-0.185
1.336,-0.195
1.340,-0.195
1.344,-0.195
1.348,-0.190
1.352,-0.185
1.356,-0.190
1.360,-0.195
1.364,-0.195
1.368,-0.195
1.372,-0.185
1.376,-0.175
1.380,-0.170
1.384,-0.165
1.388,-0.175
1.392,-0.185
1.396,-0.185
1.400,-0.185
1.404,-0.185
1.408,-0.185
1.412,-0.175
1.416,-0.165
1.420,-0.180
1.424,-0.185
1.428,-0.185
1.432,-0.185
1.436,-0.180
1.440,-0.170
1.444,-0.160
1.448,-0.155
1.452,-0.160
1.456,-0.165
1.460,-0.170
1.464,-0.175
1.468,-0.170
1.472,-0.165
1.476,-0.160
1.480,-0.155
1.484,-0.155
1.488,-0.155
1.492,-0.160
1.496,-0.160
1.500,-0.165
1.504,-0.150
1.508,-0.155
1.512,-0.155
1.516,-0.155
1.520,-0.155
1.524,-0.155
1.528,-0.160
1.532,-0.165
1.536,-0.150
1.540,-0.135
1.544,-0.135
1.548,-0.135
1.552,-0.140
1.556,-0.145
1.560,-0.140
1.564,-0.135
1.568,-0.135
1.572,-0.135
1.576,-0.135
1.580,-0.135
1.584,-0.130
1.588,-0.125
1.592,-0.130
1.596,-0.135
1.600,-0.135
1.604,-0.135
1.608,-0.135
1.612,-0.135
1.616,-0.130
1.620,-0.125
1.624,-0.125
1.628,-0.125
1.632,-0.120
1.636,-0.115
1.640,-0.120
1.644,-0.125
1.648,-0.130
1.652,-0.130
1.656,-0.120
1.660,-0.115
1.664,-0.110
1.668,-0.115
1.672,-0.125
1.676,-0.120
1.680,-0.115
1.684,-0.115
1.688,-0.115
1.692,-0.100
1.696,-0.080
1.700,-0.050
1.704,-0.025
1.708,-0.035
1.712,-0.045
1.716,-0.035
1.720,-0.020
1.724,0.015
1.728,0.025
1.732,-0.010
1.736,-0.045
1.740,-0.070
1.744,-0.085
1.748,-0.075
1.752,-0.060
1.756,-0.050
1.760,-0.055
1.764,-0.080
1.768,-0.100
1.772,-0.110
1.776,-0.115
1.780,-0.110
1.784,-0.105
1.788,-0.110
1.792,-0.115
1.796,-0.110
1.800,-0.105
1.804,-0.110
1.808,-0.115
1.812,-0.110
1.816,-0.085
1.820,-0.060
1.824,-0.065
1.828,-0.080
1.832,-0.365
1.836,-0.655
1.840,-0.895
1.844,-1.110
1.848,-0.790
1.852,-0.405
1.856,0.550
1.860,1.470
1.864,2.235
1.868,2.865
1.872,2.965
1.876,3.025
1.880,2.925
1.884,2.635
1.888,1.895
1.892,1.140
1.896,0.360
1.900,-0.150
1.904,-0.250
1.908,-0.275
1.912,-0.205
1.916,-0.180
1.920,-0.215
1.924,-0.245
1.928,-0.265
1.932,-0.275
1.936,-0.275
1.940,-0.275
1.944,-0.270
1.948,-0.265
1.952,-0.270
1.956,-0.270
1.960,-0.260
1.964,-0.255
1.968,-0.250
1.972,-0.245
1.976,-0.245
1.980,-0.245
1.984,-0.245
1.988,-0.240
1.992,-0.230
1.996,-0.225
2.000,-0.225
2.004,-0.215
2.008,-0.205
2.012,-0.190
2.016,-0.175
2.020,-0.170
2.024,-0.165
2.028,-0.155
2.032,-0.145
2.036,-0.135
2.040,-0.125
2.044,-0.125
2.048,-0.125
2.052,-0.120
2.056,-0.110
2.060,-0.090
2.064,-0.075
2.068,-0.070
2.072,-0.060
2.076,-0.045
2.080,-0.025
2.084,0.000
2.088,0.015
2.092,0.020
2.096,0.030
2.100,0.040
2.104,0.050
2.108,0.065
2.112,0.080
2.116,0.090
2.120,0.105
2.124,0.120
2.128,0.125
2.132,0.130
2.136,0.140
2.140,0.150
2.144,0.155
2.148,0.160
2.152,0.170
2.156,0.180
2.160,0.175
2.164,0.160
2.168,0.140
2.172,0.125
2.176,0.110
2.180,0.095
2.184,0.075
2.188,0.055
2.192,0.025
2.196,-0.005
2.200,-0.015
2.204,-0.025
2.208,-0.040
2.212,-0.060
2.216,-0.080
2.220,-0.095
2.224,-0.100
2.228,-0.105
2.232,-0.115
2.236,-0.125
2.240,-0.125
2.244,-0.125
2.248,-0.120
2.252,-0.115
2.256,-0.115
2.260,-0.120
2.264,-0.130
2.268,-0.135
2.272,-0.130
2.276,-0.125
2.280,-0.130
2.284,-0.135
2.288,-0.130
2.292,-0.130
2.296,-0.140
2.300,-0.145
2.304,-0.140
2.308,-0.135
2.312,-0.135
2.316,-0.135
2.320,-0.135
2.324,-0.135
2.328,-0.140
2.332,-0.145
2.336,-0.155
2.340,-0.145
2.344,-0.135
2.348,-0.135
2.352,-0.135
2.356,-0.150
2.360,-0.165
2.364,-0.160
2.368,-0.155
2.372,-0.160
2.376,-0.165
2.380,-0.160
2.384,-0.155
2.388,-0.155
2.392,-0.155
2.396,-0.160
2.400,-0.165
2.404,-0.170
2.408,-0.175
2.412,-0.165
2.416,-0.155
2.420,-0.150
2.424,-0.145
2.428,-0.150
2.432,-0.155
2.436,-0.150
2.440,-0.145
2.444,-0.145
2.448,-0.150
2.452,-0.160
2.456,-0.165
2.460,-0.160
2.464,-0.155
2.468,-0.155
2.472,-0.155
2.476,-0.155
2.480,-0.155
2.484,-0.160
2.488,-0.165
2.492,-0.160
2.496,-0.155
2.500,-0.155
2.504,-0.145
2.508,-0.145
2.512,-0.145
2.516,-0.145
2.520,-0.140
2.524,-0.135
2.528,-0.135
2.532,-0.135
2.536,-0.135
2.540,-0.135
2.544,-0.135
2.548,-0.135
2.552,-0.135
2.556,-0.135
2.560,-0.130
2.564,-0.125
2.568,-0.125
2.572,-0.125
2.576,-0.130
2.580,-0.135
2.584,-0.130
2.588,-0.125
2.592,-0.125
2.596,-0.125
2.600,-0.120
2.604,-0.115
2.608,-0.120
2.612,-0.125
2.616,-0.125
2.620,-0.125
2.624,-0.125
2.628,-0.125
2.632,-0.130
2.636,-0.130
2.640,-0.120
2.644,-0.090
2.648,-0.060
2.652,-0.055
2.656,-0.055
2.660,-0.045
2.664,-0.030
2.668,-0.015
2.672,-0.005
2.676,-0.035
2.680,-0.065
2.684,-0.075
2.688,-0.085
2.692,-0.085
2.696,-0.085
2.700,-0.085
2.704,-0.085
2.708,-0.095
2.712,-0.105
2.716,-0.115
2.720,-0.125
2.724,-0.125
2.728,-0.125
2.732,-0.130
2.736,-0.135
2.740,-0.135
2.744,-0.135
2.748,-0.135
2.752,-0.130
2.756,-0.120
2.760,-0.110
2.764,-0.095
2.768,-0.090
2.772,-0.100
2.776,-0.225
2.780,-0.420
2.784,-0.720
2.788,-1.070
2.792,-0.970
2.796,-0.695
2.800,0.085
2.804,1.005
2.808,1.885
2.812,2.755
2.816,3.005
2.820,3.170
2.824,3.070
2.828,2.940
2.832,2.185
2.836,1.405
2.840,0.600
2.844,-0.160
2.848,-0.255
2.852,-0.340
2.856,-0.280
2.860,-0.225
2.864,-0.240
2.868,-0.260
2.872,-0.285
2.876,-0.305
2.880,-0.310
2.884,-0.315
2.888,-0.315
2.892,-0.315
2.896,-0.315
2.900,-0.315
2.904,-0.310
2.908,-0.300
2.912,-0.285
2.916,-0.275
2.920,-0.280
2.924,-0.285
2.928,-0.280
2.932,-0.270
2.936,-0.260
2.940,-0.255
2.944,-0.250
2.948,-0.245
2.952,-0.245
2.956,-0.235
2.960,-0.220
2.964,-0.215
2.968,-0.210
2.972,-0.205
2.976,-0.200
2.980,-0.190
2.984,-0.180
2.988,-0.175
2.992,-0.170
2.996,-0.160
3.000,-0.165
3.004,-0.135
3.008,-0.125
3.012,-0.125
3.016,-0.125
3.020,-0.110
3.024,-0.095
3.028,-0.085
3.032,-0.075
3.036,-0.060
3.040,-0.045
3.044,-0.020
3.048,-0.005
3.052,0.010
3.056,0.030
3.060,0.045
3.064,0.055
3.068,0.065
3.072,0.075
3.076,0.085
3.080,0.095
3.084,0.100
3.088,0.110
3.092,0.120
3.096,0.125
3.100,0.130
3.104,0.130
3.108,0.115
3.112,0.095
3.116,0.075
3.120,0.050
3.124,0.025
3.128,0.000
3.132,-0.020
3.136,-0.045
3.140,-0.080
3.144,-0.105
3.148,-0.130
3.152,-0.140
3.156,-0.150
3.160,-0.160
3.164,-0.170
3.168,-0.180
3.172,-0.185
3.176,-0.185
3.180,-0.185
3.184,-0.185
3.188,-0.185
3.192,-0.190
3.196,-0.195
3.200,-0.195
3.204,-0.195
3.208,-0.200
3.212,-0.205
3.216,-0.200
3.220,-0.195
3.224,-0.195
3.228,-0.195
3.232,-0.195
3.236,-0.195
3.240,-0.190
3.244,-0.185
3.248,-0.190
3.252,-0.195
3.256,-0.190
3.260,-0.185
3.264,-0.190
3.268,-0.195
3.272,-0.195
3.276,-0.195
3.280,-0.195
3.284,-0.195
3.288,-0.195
3.292,-0.195
3.296,-0.195
3.300,-0.200
3.304,-0.210
3.308,-0.210
3.312,-0.200
3.316,-0.195
3.320,-0.200
3.324,-0.205
3.328,-0.205
3.332,-0.205
3.336,-0.205
3.340,-0.205
3.344,-0.205
3.348,-0.200
3.352,-0.195
3.356,-0.200
3.360,-0.205
3.364,-0.205
3.368,-0.205
3.372,-0.205
3.376,-0.205
3.380,-0.200
3.384,-0.195
3.388,-0.200
3.392,-0.205
3.396,-0.205
3.400,-0.205
3.404,-0.195
3.408,-0.185
3.412,-0.190
3.416,-0.195
3.420,-0.195
3.424,-0.195
3.428,-0.195
3.432,-0.195
3.436,-0.195
3.440,-0.195
3.444,-0.190
3.448,-0.185
3.452,-0.185
3.456,-0.185
3.460,-0.185
3.464,-0.185
3.468,-0.180
3.472,-0.175
3.476,-0.175
3.480,-0.175
3.484,-0.175
3.488,-0.175
3.492,-0.180
3.496,-0.185
3.500,-0.185
3.504,-0.170
3.508,-0.165
3.512,-0.170
3.516,-0.175
3.520,-0.175
3.524,-0.175
3.528,-0.175
3.532,-0.175
3.536,-0.170
3.540,-0.165
3.544,-0.165
3.548,-0.165
3.552,-0.165
3.556,-0.165
3.560,-0.165
3.564,-0.165
3.568,-0.155
3.572,-0.145
3.576,-0.150
3.580,-0.155
3.584,-0.160
3.588,-0.165
3.592,-0.165
3.596,-0.165
3.600,-0.160
3.604,-0.145
3.608,-0.125
3.612,-0.105
3.616,-0.085
3.620,-0.080
3.624,-0.090
3.628,-0.070
3.632,-0.035
3.636,-0.035
3.640,-0.050
3.644,-0.080
3.648,-0.110
3.652,-0.115
3.656,-0.120
3.660,-0.120
3.664,-0.110
3.668,-0.110
3.672,-0.115
3.676,-0.130
3.680,-0.145
3.684,-0.150
3.688,-0.155
3.692,-0.155
3.696,-0.155
3.700,-0.155
3.704,-0.155
3.708,-0.160
3.712,-0.165
3.716,-0.160
3.720,-0.155
3.724,-0.145
3.728,-0.135
3.732,-0.130
3.736,-0.145
3.740,-0.210
3.744,-0.400
3.748,-0.750
3.752,-0.940
3.756,-0.970
3.760,-0.675
3.764,-0.110
3.768,0.750
3.772,1.805
3.776,2.470
3.780,2.915
3.784,3.050
3.788,3.040
3.792,2.750
3.796,2.355
3.800,1.465
3.804,0.445
3.808,0.010
3.812,-0.305
3.816,-0.290
3.820,-0.225
3.824,-0.225
3.828,-0.240
3.832,-0.275
3.836,-0.315
3.840,-0.320
3.844,-0.325
3.848,-0.325
3.852,-0.325
3.856,-0.325
3.860,-0.325
3.864,-0.325
3.868,-0.325
3.872,-0.325
3.876,-0.325
3.880,-0.310
3.884,-0.295
3.888,-0.295
3.892,-0.295
3.896,-0.290
3.900,-0.285
3.904,-0.275
3.908,-0.265
3.912,-0.255
3.916,-0.245
3.920,-0.240
3.924,-0.235
3.928,-0.230
3.932,-0.225
3.936,-0.220
3.940,-0.215
3.944,-0.210
3.948,-0.205
3.952,-0.200
3.956,-0.195
3.960,-0.190
3.964,-0.175
3.968,-0.160
3.972,-0.155
3.976,-0.150
3.980,-0.135
3.984,-0.120
3.988,-0.110
3.992,-0.100
3.996,-0.085
4.000,-0.095
4.004,-0.045
4.008,-0.025
4.012,-0.015
4.016,-0.005
4.020,0.015
4.024,0.035
4.028,0.055
4.032,0.075
4.036,0.090
4.040,0.105
4.044,0.120
4.048,0.135
4.052,0.145
4.056,0.155
4.060,0.155
4.064,0.155
4.068,0.150
4.072,0.140
4.076,0.120
4.080,0.095
4.084,0.070
4.088,0.045
4.092,0.025
4.096,0.005
4.100,-0.015
4.104,-0.035
4.108,-0.055
4.112,-0.075
4.116,-0.095
4.120,-0.115
4.124,-0.130
4.128,-0.135
4.132,-0.135
4.136,-0.140
4.140,-0.150
4.144,-0.155
4.148,-0.160
4.152,-0.165
4.156,-0.160
4.160,-0.155
4.164,-0.155
4.168,-0.155
4.172,-0.155
4.176,-0.160
4.180,-0.165
4.184,-0.160
4.188,-0.155
4.192,-0.150
4.196,-0.145
4.200,-0.150
4.204,-0.155
4.208,-0.155
4.212,-0.155
4.216,-0.155
4.220,-0.155
4.224,-0.155
4.228,-0.155
4.232,-0.160
4.236,-0.165
4.240,-0.165
4.244,-0.165
4.248,-0.170
4.252,-0.170
4.256,-0.160
4.260,-0.160
4.264,-0.170
4.268,-0.175
4.272,-0.175
4.276,-0.175
4.280,-0.175
4.284,-0.170
4.288,-0.160
4.292,-0.155
4.296,-0.150
4.300,-0.145
4.304,-0.150
4.308,-0.160
4.312,-0.170
4.316,-0.170
4.320,-0.160
4.324,-0.155
4.328,-0.155
4.332,-0.160
4.336,-0.175
4.340,-0.175
4.344,-0.175
4.348,-0.160
4.352,-0.145
4.356,-0.140
4.360,-0.135
4.364,-0.135
4.368,-0.135
4.372,-0.135
4.376,-0.135
4.380,-0.140
4.384,-0.145
4.388,-0.145
4.392,-0.145
4.396,-0.140
4.400,-0.135
4.404,-0.140
4.408,-0.145
4.412,-0.135
4.416,-0.125
4.420,-0.130
4.424,-0.135
4.428,-0.130
4.432,-0.125
4.436,-0.120
4.440,-0.115
4.444,-0.115
4.448,-0.115
4.452,-0.120
4.456,-0.125
4.460,-0.125
4.464,-0.125
4.468,-0.125
4.472,-0.120
4.476,-0.110
4.480,-0.105
4.484,-0.110
4.488,-0.115
4.492,-0.115
4.496,-0.115
4.500,-0.115
4.504,-0.100
4.508,-0.095
4.512,-0.100
4.516,-0.105
4.520,-0.110
4.524,-0.115
4.528,-0.105
4.532,-0.095
4.536,-0.090
4.540,-0.085
4.544,-0.090
4.548,-0.095
4.552,-0.095
4.556,-0.095
4.560,-0.095
4.564,-0.095
4.568,-0.100
4.572,-0.095
4.576,-0.065
4.580,-0.045
4.584,-0.030
4.588,-0.025
4.592,-0.025
4.596,-0.015
4.600,0.015
4.604,0.025
4.608,0.030
4.612,0.005
4.616,-0.040
4.620,-0.055
4.624,-0.060
4.628,-0.065
4.632,-0.060
4.636,-0.055
4.640,-0.050
4.644,-0.055
4.648,-0.070
4.652,-0.080
4.656,-0.090
4.660,-0.095
4.664,-0.090
4.668,-0.085
4.672,-0.085
4.676,-0.085
4.680,-0.085
4.684,-0.090
4.688,-0.095
4.692,-0.085
4.696,-0.075
4.700,-0.060
4.704,-0.055
4.708,-0.105
4.712,-0.235
4.716,-0.590
4.720,-0.870
4.724,-0.980
4.728,-0.880
4.732,-0.380
4.736,0.345
4.740,1.410
4.744,2.250
4.748,2.825
4.752,3.080
4.756,3.010
4.760,2.835
4.764,2.580
4.768,1.890
4.772,0.895
4.776,0.250
4.780,-0.195
4.784,-0.300
4.788,-0.240
4.792,-0.200
4.796,-0.165
4.800,-0.175
4.804,-0.205
4.808,-0.230
4.812,-0.250
4.816,-0.255
4.820,-0.255
4.824,-0.255
4.828,-0.255
4.832,-0.255
4.836,-0.245
4.840,-0.240
4.844,-0.235
4.848,-0.240
4.852,-0.245
4.856,-0.240
4.860,-0.235
4.864,-0.215
4.868,-0.195
4.872,-0.195
4.876,-0.195
4.880,-0.195
4.884,-0.195
4.888,-0.185
4.892,-0.175
4.896,-0.170
4.900,-0.165
4.904,-0.155
4.908,-0.145
4.912,-0.140
4.916,-0.135
4.920,-0.135
4.924,-0.130
4.928,-0.115
4.932,-0.100
4.936,-0.085
4.940,-0.070
4.944,-0.060
4.948,-0.050
4.952,-0.040
4.956,-0.035
4.960,-0.030
4.964,-0.015
4.968,0.000
4.972,0.015
4.976,0.030
4.980,0.045
4.984,0.060
4.988,0.080
4.992,0.100
4.996,0.115
5.000,0.105
5.004,0.140
5.008,0.145
5.012,0.155
5.016,0.165
5.020,0.170
5.024,0.175
5.028,0.195
5.032,0.215
5.036,0.210
5.040,0.205
5.044,0.190
5.048,0.170
5.052,0.150
5.056,0.130
5.060,0.105
5.064,0.080
5.068,0.065
5.072,0.045
5.076,0.015
5.080,-0.015
5.084,-0.040
5.088,-0.060
5.092,-0.070
5.096,-0.080
5.100,-0.090
5.104,-0.100
5.108,-0.110
5.112,-0.115
5.116,-0.120
5.120,-0.125
5.124,-0.125
5.128,-0.125
5.132,-0.130
5.136,-0.135
5.140,-0.135
5.144,-0.130
5.148,-0.120
5.152,-0.115
5.156,-0.120
5.160,-0.125
5.164,-0.130
5.168,-0.140
5.172,-0.145
5.176,-0.145
5.180,-0.145
5.184,-0.135
5.188,-0.125
5.192,-0.135
5.196,-0.145
5.200,-0.150
5.204,-0.155
5.208,-0.155
5.212,-0.155
5.216,-0.150
5.220,-0.145
5.224,-0.140
5.228,-0.135
5.232,-0.140
5.236,-0.145
5.240,-0.150
5.244,-0.155
5.248,-0.155
5.252,-0.155
5.256,-0.155
5.260,-0.155
5.264,-0.155
5.268,-0.155
5.272,-0.160
5.276,-0.160
5.280,-0.150
5.284,-0.145
5.288,-0.145
5.292,-0.145
5.296,-0.140
5.300,-0.135
5.304,-0.140
5.308,-0.145
5.312,-0.140
5.316,-0.135
5.320,-0.135
5.324,-0.135
5.328,-0.140
5.332,-0.145
5.336,-0.135
5.340,-0.135
5.344,-0.135
5.348,-0.130
5.352,-0.125
5.356,-0.125
5.360,-0.125
5.364,-0.135
5.368,-0.145
5.372,-0.135
5.376,-0.125
5.380,-0.120
5.384,-0.115
5.388,-0.120
5.392,-0.125
5.396,-0.125
5.400,-0.125
5.404,-0.125
5.408,-0.125
5.412,-0.120
5.416,-0.115
5.420,-0.120
5.424,-0.125
5.428,-0.125
5.432,-0.125
5.436,-0.120
5.440,-0.115
5.444,-0.115
5.448,-0.115
5.452,-0.120
5.456,-0.125
5.460,-0.125
5.464,-0.110
5.468,-0.080
5.472,-0.060
5.476,-0.040
5.480,-0.040
5.484,-0.050
5.488,-0.025
5.492,0.010
5.496,-0.005
5.500,0.015
5.504,-0.050
5.508,-0.065
5.512,-0.080
5.516,-0.095
5.520,-0.090
5.524,-0.085
5.528,-0.075
5.532,-0.065
5.536,-0.075
5.540,-0.085
5.544,-0.095
5.548,-0.105
5.552,-0.110
5.556,-0.115
5.560,-0.115
5.564,-0.115
5.568,-0.115
5.572,-0.115
5.576,-0.110
5.580,-0.105
5.584,-0.105
5.588,-0.100
5.592,-0.085
5.596,-0.075
5.600,-0.075
5.604,-0.215
5.608,-0.450
5.612,-0.735
5.616,-1.050
5.620,-0.965
5.624,-0.710
5.628,-0.020
5.632,0.815
5.636,1.715
5.640,2.630
5.644,2.960
5.648,3.180
5.652,3.100
5.656,2.975
5.660,2.380
5.664,1.755
5.668,0.910
5.672,0.080
5.676,-0.145
5.680,-0.350
5.684,-0.275
5.688,-0.205
5.692,-0.205
5.696,-0.210
5.700,-0.245
5.704,-0.275
5.708,-0.285
5.712,-0.295
5.716,-0.290
5.720,-0.285
5.724,-0.285
5.728,-0.285
5.732,-0.280
5.736,-0.275
5.740,-0.275
5.744,-0.275
5.748,-0.270
5.752,-0.265
5.756,-0.260
5.760,-0.255
5.764,-0.250
5.768,-0.245
5.772,-0.240
5.776,-0.235
5.780,-0.230
5.784,-0.220
5.788,-0.210
5.792,-0.205
5.796,-0.200
5.800,-0.195
5.804,-0.195
5.808,-0.185
5.812,-0.170
5.816,-0.165
5.820,-0.160
5.824,-0.150
5.828,-0.140
5.832,-0.135
5.836,-0.125
5.840,-0.115
5.844,-0.105
5.848,-0.095
5.852,-0.085
5.856,-0.070
5.860,-0.055
5.864,-0.045
5.868,-0.035
5.872,-0.025
5.876,-0.010
5.880,0.010
5.884,0.025
5.888,0.035
5.892,0.050
5.896,0.070
5.900,0.085
5.904,0.095
5.908,0.105
5.912,0.115
5.916,0.125
5.920,0.140
5.924,0.145
5.928,0.145
5.932,0.140
5.936,0.130
5.940,0.120
5.944,0.110
5.948,0.090
5.952,0.065
5.956,0.035
5.960,0.005
5.964,-0.020
5.968,-0.050
5.972,-0.070
5.976,-0.090
5.980,-0.105
5.984,-0.120
5.988,-0.130
5.992,-0.140
5.996,-0.150
6.000,-0.145
6.004,-0.165
6.008,-0.165
6.012,-0.165
6.016,-0.165
6.020,-0.170
6.024,-0.175
6.028,-0.170
6.032,-0.165
6.036,-0.165
6.040,-0.165
6.044,-0.165
6.048,-0.165
6.052,-0.170
6.056,-0.175
6.060,-0.170
6.064,-0.165
6.068,-0.160
6.072,-0.155
6.076,-0.165
6.080,-0.175
6.084,-0.175
6.088,-0.175
6.092,-0.170
6.096,-0.165
6.100,-0.170
6.104,-0.175
6.108,-0.170
6.112,-0.165
6.116,-0.170
6.120,-0.175
6.124,-0.175
6.128,-0.175
6.132,-0.175
6.136,-0.175
6.140,-0.175
6.144,-0.175
6.148,-0.180
6.152,-0.185
6.156,-0.185
6.160,-0.185
6.164,-0.180
6.168,-0.175
6.172,-0.175
6.176,-0.175
6.180,-0.175
6.184,-0.175
6.188,-0.175
6.192,-0.170
6.196,-0.165
6.200,-0.165
6.204,-0.165
6.208,-0.165
6.212,-0.165
6.216,-0.165
6.220,-0.165
6.224,-0.160
6.228,-0.155
6.232,-0.160
6.236,-0.165
6.240,-0.165
6.244,-0.165
6.248,-0.165
6.252,-0.165
6.256,-0.165
6.260,-0.165
6.264,-0.160
6.268,-0.155
6.272,-0.155
6.276,-0.155
6.280,-0.155
6.284,-0.155
6.288,-0.150
6.292,-0.145
6.296,-0.145
6.300,-0.145
6.304,-0.145
6.308,-0.145
6.312,-0.145
6.316,-0.145
6.320,-0.145
6.324,-0.145
6.328,-0.145
6.332,-0.145
6.336,-0.155
6.340,-0.150
6.344,-0.145
6.348,-0.130
6.352,-0.115
6.356,-0.100
6.360,-0.085
6.364,-0.070
6.368,-0.055
6.372,-0.040
6.376,-0.025
6.380,-0.040
6.384,-0.060
6.388,-0.080
6.392,-0.095
6.396,-0.100
6.400,-0.105
6.404,-0.115
6.408,-0.125
6.412,-0.120
6.416,-0.115
6.420,-0.110
6.424,-0.110
6.428,-0.120
6.432,-0.125
6.436,-0.130
6.440,-0.135
6.444,-0.140
6.448,-0.145
6.452,-0.145
6.456,-0.145
6.460,-0.145
6.464,-0.145
6.468,-0.140
6.472,-0.130
6.476,-0.120
6.480,-0.110
6.484,-0.100
6.488,-0.135
6.492,-0.180
6.496,-0.480
6.500,-0.185
6.504,-0.900
6.508,-0.990
6.512,-0.640
6.516,-0.220
6.520,0.795
6.524,1.765
6.528,2.415
6.532,2.955
6.536,3.015
6.540,3.025
6.544,2.855
6.548,2.450
6.552,1.460
6.556,0.620
6.560,0.070
6.564,-0.270
6.568,-0.240
6.572,-0.220
6.576,-0.205
6.580,-0.205
6.584,-0.240
6.588,-0.265
6.592,-0.285
6.596,-0.295
6.600,-0.295
6.604,-0.295
6.608,-0.295
6.612,-0.295
6.616,-0.300
6.620,-0.305
6.624,-0.300
6.628,-0.290
6.632,-0.280
6.636,-0.275
6.640,-0.275
6.644,-0.275
6.648,-0.270
6.652,-0.260
6.656,-0.250
6.660,-0.245
6.664,-0.240
6.668,-0.230
6.672,-0.225
6.676,-0.220
6.680,-0.215
6.684,-0.205
6.688,-0.195
6.692,-0.185
6.696,-0.175
6.700,-0.175
6.704,-0.175
6.708,-0.170
6.712,-0.165
6.716,-0.155
6.720,-0.145
6.724,-0.135
6.728,-0.125
6.732,-0.115
6.736,-0.105
6.740,-0.100
6.744,-0.090
6.748,-0.075
6.752,-0.055
6.756,-0.035
6.760,-0.020
6.764,-0.005
6.768,0.010
6.772,0.020
6.776,0.030
6.780,0.050
6.784,0.065
6.788,0.080
6.792,0.095
6.796,0.110
6.800,0.115
6.804,0.120
6.808,0.130
6.812,0.140
6.816,0.150
6.820,0.160
6.824,0.165
6.828,0.160
6.832,0.135
6.836,0.105
6.840,0.085
6.844,0.065
6.848,0.045
6.852,0.025
6.856,0.000
6.860,-0.025
6.864,-0.045
6.868,-0.065
6.872,-0.085
6.876,-0.105
6.880,-0.110
6.884,-0.115
6.888,-0.125
6.892,-0.135
6.896,-0.135
6.900,-0.135
6.904,-0.135
6.908,-0.135
6.912,-0.135
6.916,-0.135
6.920,-0.135
6.924,-0.140
6.928,-0.150
6.932,-0.150
6.936,-0.140
6.940,-0.135
6.944,-0.140
6.948,-0.145
6.952,-0.145
6.956,-0.145
6.960,-0.145
6.964,-0.145
6.968,-0.140
6.972,-0.135
6.976,-0.140
6.980,-0.145
6.984,-0.145
6.988,-0.150
6.992,-0.160
6.996,-0.165
7.000,-0.165
7.004,-0.155
7.008,-0.155
7.012,-0.155
7.016,-0.155
7.020,-0.155
7.024,-0.155
7.028,-0.150
7.032,-0.145
7.036,-0.145
7.040,-0.145
7.044,-0.155
7.048,-0.165
7.052,-0.165
7.056,-0.165
7.060,-0.160
7.064,-0.155
7.068,-0.155
7.072,-0.155
7.076,-0.150
7.080,-0.145
7.084,-0.145
7.088,-0.145
7.092,-0.145
7.096,-0.145
7.100,-0.140
7.104,-0.135
7.108,-0.140
7.112,-0.145
7.116,-0.140
7.120,-0.135
7.124,-0.135
7.128,-0.135
7.132,-0.130
7.136,-0.125
7.140,-0.130
7.144,-0.135
7.148,-0.130
7.152,-0.125
7.156,-0.125
7.160,-0.125
7.164,-0.125
7.168,-0.125
7.172,-0.125
7.176,-0.115
7.180,-0.105
7.184,-0.110
7.188,-0.115
7.192,-0.110
7.196,-0.105
7.200,-0.110
7.204,-0.115
7.208,-0.115
7.212,-0.115
7.216,-0.110
7.220,-0.105
7.224,-0.100
7.228,-0.095
7.232,-0.095
7.236,-0.095
7.240,-0.105
7.244,-0.115
7.248,-0.105
7.252,-0.090
7.256,-0.080
7.260,-0.070
7.264,-0.055
7.268,-0.040
7.272,-0.030
7.276,-0.015
7.280,0.005
7.284,0.015
7.288,0.020
7.292,0.000
7.296,-0.035
7.300,-0.045
7.304,-0.045
7.308,-0.050
7.312,-0.060
7.316,-0.065
7.320,-0.065
7.324,-0.065
7.328,-0.060
7.332,-0.055
7.336,-0.065
7.340,-0.070
7.344,-0.075
7.348,-0.080
7.352,-0.085
7.356,-0.095
7.360,-0.105
7.364,-0.100
7.368,-0.095
7.372,-0.090
7.376,-0.085
7.380,-0.075
7.384,-0.065
7.388,-0.055
7.392,-0.045
7.396,-0.050
7.400,-0.135
7.404,-0.350
7.408,-0.605
7.412,-0.905
7.416,-0.945
7.420,-0.685
7.424,-0.070
7.428,0.860
7.432,1.725
7.436,2.545
7.440,2.925
7.444,3.035
7.448,3.010
7.452,2.915
7.456,2.340
7.460,1.575
7.464,0.830
7.468,0.085
7.472,-0.140
7.476,-0.245
7.480,-0.215
7.484,-0.155
7.488,-0.150
7.492,-0.160
7.496,-0.190
7.500,-0.165
7.504,-0.240
7.508,-0.255
7.512,-0.250
7.516,-0.245
7.520,-0.250
7.524,-0.255
7.528,-0.240
7.532,-0.225
7.536,-0.220
7.540,-0.215
7.544,-0.215
7.548,-0.215
7.552,-0.220
7.556,-0.220
7.560,-0.205
7.564,-0.190
7.568,-0.175
7.572,-0.165
7.576,-0.165
7.580,-0.165
7.584,-0.165
7.588,-0.160
7.592,-0.150
7.596,-0.140
7.600,-0.125
7.604,-0.115
7.608,-0.115
7.612,-0.115
7.616,-0.115
7.620,-0.105
7.624,-0.085
7.628,-0.060
7.632,-0.035
7.636,-0.025
7.640,-0.020
7.644,-0.015
7.648,-0.015
7.652,-0.005
7.656,0.010
7.660,0.025
7.664,0.040
7.668,0.050
7.672,0.055
7.676,0.065
7.680,0.075
7.684,0.095
7.688,0.115
7.692,0.140
7.696,0.165
7.700,0.170
7.704,0.175
7.708,0.190
7.712,0.205
7.716,0.200
7.720,0.195
7.724,0.205
7.728,0.215
7.732,0.210
7.736,0.200
7.740,0.180
7.744,0.160
7.748,0.145
7.752,0.125
7.756,0.105
7.760,0.085
7.764,0.060
7.768,0.030
7.772,0.000
7.776,-0.015
7.780,-0.020
7.784,-0.035
7.788,-0.055
7.792,-0.075
7.796,-0.090
7.800,-0.095
7.804,-0.095
7.808,-0.100
7.812,-0.110
7.816,-0.115
7.820,-0.110
7.824,-0.105
7.828,-0.105
7.832,-0.105
7.836,-0.105
7.840,-0.100
7.844,-0.095
7.848,-0.095
7.852,-0.095
7.856,-0.105
7.860,-0.115
7.864,-0.120
7.868,-0.125
7.872,-0.125
7.876,-0.125
7.880,-0.120
7.884,-0.115
7.888,-0.120
7.892,-0.125
7.896,-0.125
7.900,-0.125
7.904,-0.125
7.908,-0.125
7.912,-0.125
7.916,-0.125
7.920,-0.140
7.924,-0.145
7.928,-0.145
7.932,-0.145
7.936,-0.140
7.940,-0.135
7.944,-0.130
7.948,-0.135
7.952,-0.150
7.956,-0.155
7.960,-0.160
7.964,-0.155
7.968,-0.140
7.972,-0.135
7.976,-0.135
7.980,-0.135
7.984,-0.140
7.988,-0.145
7.992,-0.140
7.996,-0.135
8.000,-0.135
8.004,-0.150
8.008,-0.155
8.012,-0.145
8.016,-0.135
8.020,-0.135
8.024,-0.135
8.028,-0.130
8.032,-0.125
8.036,-0.130
8.040,-0.135
8.044,-0.140
8.048,-0.145
8.052,-0.140
8.056,-0.135
8.060,-0.135
8.064,-0.135
8.068,-0.135
8.072,-0.135
8.076,-0.125
8.080,-0.115
8.084,-0.120
8.088,-0.125
8.092,-0.125
8.096,-0.120
8.100,-0.110
8.104,-0.100
8.108,-0.090
8.112,-0.080
8.116,-0.070
8.120,-0.060
8.124,-0.050
8.128,-0.030
8.132,-0.005
8.136,-0.005
8.140,-0.020
8.144,-0.040
8.148,-0.060
8.152,-0.070
8.156,-0.080
8.160,-0.085
8.164,-0.085
8.168,-0.090
8.172,-0.095
8.176,-0.100
8.180,-0.105
8.184,-0.115
8.188,-0.125
8.192,-0.125
8.196,-0.125
8.200,-0.130
8.204,-0.135
8.208,-0.140
8.212,-0.145
8.216,-0.150
8.220,-0.155
8.224,-0.135
8.228,-0.125
8.232,-0.115
8.236,-0.105
8.240,-0.095
8.244,-0.110
8.248,-0.165
8.252,-0.385
8.256,-0.775
8.260,-0.975
8.264,-1.015
8.268,-0.645
8.272,0.015
8.276,0.950
8.280,2.035
8.284,2.640
8.288,3.030
8.292,3.045
8.296,2.915
8.300,2.570
8.304,2.165
8.308,1.315
8.312,0.365
8.316,-0.035
8.320,-0.355
8.324,-0.335
8.328,-0.280
8.332,-0.245
8.336,-0.205
8.340,-0.235
8.344,-0.265
8.348,-0.275
8.352,-0.285
8.356,-0.295
8.360,-0.305
8.364,-0.300
8.368,-0.295
8.372,-0.285
8.376,-0.275
8.380,-0.275
8.384,-0.275
8.388,-0.270
8.392,-0.265
8.396,-0.260
8.400,-0.255
8.404,-0.250
8.408,-0.245
8.412,-0.240
8.416,-0.235
8.420,-0.230
8.424,-0.225
8.428,-0.220
8.432,-0.210
8.436,-0.200
8.440,-0.195
8.444,-0.190
8.448,-0.185
8.452,-0.180
8.456,-0.170
8.460,-0.160
8.464,-0.155
8.468,-0.150
8.472,-0.140
8.476,-0.130
8.480,-0.125
8.484,-0.120
8.488,-0.105
8.492,-0.090
8.496,-0.080
8.500,-0.085
8.504,-0.050
8.508,-0.035
8.512,-0.025
8.516,-0.015
8.520,-0.005
8.524,0.005
8.528,0.020
8.532,0.035
8.536,0.050
8.540,0.065
8.544,0.070
8.548,0.075
8.552,0.085
8.556,0.095
8.560,0.105
8.564,0.115
8.568,0.110
8.572,0.105
8.576,0.095
8.580,0.080
8.584,0.065
8.588,0.050
8.592,0.035
8.596,0.015
8.600,-0.005
8.604,-0.025
8.608,-0.045
8.612,-0.070
8.616,-0.095
8.620,-0.110
8.624,-0.120
8.628,-0.140
8.632,-0.160
8.636,-0.170
8.640,-0.180
8.644,-0.185
8.648,-0.185
8.652,-0.185
8.656,-0.190
8.660,-0.195
8.664,-0.190
8.668,-0.190
8.672,-0.195
8.676,-0.195
8.680,-0.195
8.684,-0.185
8.688,-0.175
8.692,-0.175
8.696,-0.175
8.700,-0.180
8.704,-0.185
8.708,-0.190
8.712,-0.195
8.716,-0.190
8.720,-0.185
8.724,-0.185
8.728,-0.185
8.732,-0.185
8.736,-0.185
8.740,-0.190
8.744,-0.195
8.748,-0.195
8.752,-0.195
8.756,-0.195
8.760,-0.200
8.764,-0.210
8.768,-0.215
8.772,-0.215
8.776,-0.215
8.780,-0.215
8.784,-0.210
8.788,-0.200
8.792,-0.195
8.796,-0.200
8.800,-0.205
8.804,-0.205
8.808,-0.205
8.812,-0.205
8.816,-0.205
8.820,-0.200
8.824,-0.195
8.828,-0.200
8.832,-0.205
8.836,-0.205
8.840,-0.205
8.844,-0.205
8.848,-0.200
8.852,-0.195
8.856,-0.195
8.860,-0.195
8.864,-0.200
8.868,-0.205
8.872,-0.205
8.876,-0.205
8.880,-0.200
8.884,-0.195
8.888,-0.200
8.892,-0.205
8.896,-0.200
8.900,-0.195
8.904,-0.195
8.908,-0.195
8.912,-0.190
8.916,-0.185
8.920,-0.190
8.924,-0.190
8.928,-0.175
8.932,-0.165
8.936,-0.165
8.940,-0.150
8.944,-0.125
8.948,-0.110
8.952,-0.100
8.956,-0.095
8.960,-0.090
8.964,-0.085
8.968,-0.090
8.972,-0.110
8.976,-0.130
8.980,-0.135
8.984,-0.140
8.988,-0.150
8.992,-0.160
8.996,-0.165
9.000,-0.165
9.004,-0.160
9.008,-0.165
9.012,-0.165
9.016,-0.165
9.020,-0.175
9.024,-0.185
9.028,-0.195
9.032,-0.205
9.036,-0.195
9.040,-0.185
9.044,-0.185
9.048,-0.185
9.052,-0.185
9.056,-0.185
9.060,-0.175
9.064,-0.160
9.068,-0.145
9.072,-0.175
9.076,-0.280
9.080,-0.495
9.084,-0.845
9.088,-0.995
9.092,-0.955
9.096,-0.580
9.100,0.055
9.104,0.955
9.108,2.025
9.112,2.630
9.116,2.985
9.120,3.060
9.124,3.000
9.128,2.635
9.132,2.165
9.136,1.290
9.140,0.310
9.144,-0.080
9.148,-0.360
9.152,-0.335
9.156,-0.260
9.160,-0.255
9.164,-0.260
9.168,-0.295
9.172,-0.325
9.176,-0.340
9.180,-0.355
9.184,-0.360
9.188,-0.365
9.192,-0.355
9.196,-0.345
9.200,-0.345
9.204,-0.345
9.208,-0.340
9.212,-0.335
9.216,-0.330
9.220,-0.325
9.224,-0.315
9.228,-0.305
9.232,-0.305
9.236,-0.305
9.240,-0.300
9.244,-0.295
9.248,-0.290
9.252,-0.280
9.256,-0.270
9.260,-0.265
9.264,-0.260
9.268,-0.255
9.272,-0.255
9.276,-0.250
9.280,-0.240
9.284,-0.235
9.288,-0.230
9.292,-0.220
9.296,-0.210
9.300,-0.205
9.304,-0.200
9.308,-0.185
9.312,-0.170
9.316,-0.155
9.320,-0.140
9.324,-0.130
9.328,-0.120
9.332,-0.110
9.336,-0.095
9.340,-0.075
9.344,-0.055
9.348,-0.040
9.352,-0.025
9.356,-0.015
9.360,-0.005
9.364,0.010
9.368,0.025
9.372,0.040
9.376,0.055
9.380,0.070
9.384,0.085
9.388,0.090
9.392,0.095
9.396,0.100
9.400,0.105
9.404,0.105
9.408,0.105
9.412,0.095
9.416,0.075
9.420,0.050
9.424,0.020
9.428,-0.010
9.432,-0.035
9.436,-0.065
9.440,-0.080
9.444,-0.095
9.448,-0.115
9.452,-0.135
9.456,-0.155
9.460,-0.170
9.464,-0.175
9.468,-0.180
9.472,-0.185
9.476,-0.185
9.480,-0.185
9.484,-0.190
9.488,-0.195
9.492,-0.195
9.496,-0.195
9.500,-0.195
9.504,-0.190
9.508,-0.185
9.512,-0.190
9.516,-0.195
9.520,-0.195
9.524,-0.195
9.528,-0.190
9.532,-0.185
9.536,-0.185
9.540,-0.185
9.544,-0.190
9.548,-0.195
9.552,-0.200
9.556,-0.205
9.560,-0.200
9.564,-0.195
9.568,-0.195
9.572,-0.195
9.576,-0.195
9.580,-0.195
9.584,-0.200
9.588,-0.205
9.592,-0.205
9.596,-0.205
9.600,-0.200
9.604,-0.195
9.608,-0.195
9.612,-0.195
9.616,-0.200
9.620,-0.205
9.624,-0.200
9.628,-0.195
9.632,-0.195
9.636,-0.195
9.640,-0.195
9.644,-0.195
9.648,-0.195
9.652,-0.195
9.656,-0.195
9.660,-0.195
9.664,-0.190
9.668,-0.185
9.672,-0.185
9.676,-0.190
9.680,-0.195
9.684,-0.195
9.688,-0.195
9.692,-0.190
9.696,-0.185
9.700,-0.185
9.704,-0.185
9.708,-0.185
9.712,-0.185
9.716,-0.185
9.720,-0.185
9.724,-0.180
9.728,-0.175
9.732,-0.180
9.736,-0.185
9.740,-0.180
9.744,-0.175
9.748,-0.175
9.752,-0.175
9.756,-0.175
9.760,-0.175
9.764,-0.170
9.768,-0.165
9.772,-0.170
9.776,-0.175
9.780,-0.170
9.784,-0.165
9.788,-0.160
9.792,-0.155
9.796,-0.155
9.800,-0.155
9.804,-0.160
9.808,-0.165
9.812,-0.160
9.816,-0.155
9.820,-0.150
9.824,-0.150
9.828,-0.160
9.832,-0.165
9.836,-0.165
9.840,-0.150
9.844,-0.135
9.848,-0.115
9.852,-0.095
9.856,-0.085
9.860,-0.075
9.864,-0.060
9.868,-0.045
9.872,-0.050
9.876,-0.060
9.880,-0.080
9.884,-0.095
9.888,-0.105
9.892,-0.120
9.896,-0.135
9.900,-0.145
9.904,-0.135
9.908,-0.125
9.912,-0.120
9.916,-0.120
9.920,-0.135
9.924,-0.150
9.928,-0.160
9.932,-0.165
9.936,-0.165
9.940,-0.165
9.944,-0.160
9.948,-0.155
9.952,-0.155
9.956,-0.155
9.960,-0.155
9.964,-0.155
9.968,-0.150
9.972,-0.130
9.976,-0.110
9.980,-0.130
9.984,-0.160
9.988,-0.435
9.992,-0.740
9.996,-0.890
