0.000,-0.035
0.004,-0.145
0.008,-0.175
0.012,-0.175
0.016,-0.175
0.020,-0.160
0.024,-0.145
0.028,-0.145
0.032,-0.145
0.036,-0.140
0.040,-0.135
0.044,-0.125
0.048,-0.110
0.052,-0.085
0.056,-0.100
0.060,-0.205
0.064,-0.345
0.068,-0.545
0.072,-0.630
0.076,-0.545
0.080,-0.215
0.084,0.390
0.088,1.155
0.092,2.070
0.096,2.700
0.100,3.105
0.104,3.135
0.108,2.920
0.112,2.185
0.116,1.175
0.120,0.590
0.124,0.180
0.128,-0.025
0.132,-0.165
0.136,-0.215
0.140,-0.240
0.144,-0.245
0.148,-0.250
0.152,-0.255
0.156,-0.255
0.160,-0.255
0.164,-0.255
0.168,-0.260
0.172,-0.265
0.176,-0.265
0.180,-0.265
0.184,-0.265
0.188,-0.265
0.192,-0.265
0.196,-0.265
0.200,-0.270
0.204,-0.275
0.208,-0.265
0.212,-0.255
0.216,-0.255
0.220,-0.255
0.224,-0.245
0.228,-0.235
0.232,-0.235
0.236,-0.235
0.240,-0.225
0.244,-0.215
0.248,-0.210
0.252,-0.205
0.256,-0.205
0.260,-0.205
0.264,-0.205
0.268,-0.205
0.272,-0.200
0.276,-0.195
0.280,-0.190
0.284,-0.180
0.288,-0.170
0.292,-0.160
0.296,-0.150
0.300,-0.135
0.304,-0.120
0.308,-0.105
0.312,-0.090
0.316,-0.085
0.320,-0.080
0.324,-0.060
0.328,-0.040
0.332,-0.030
0.336,-0.015
0.340,0.010
0.344,0.035
0.348,0.040
0.352,0.045
0.356,0.070
0.360,0.095
0.364,0.100
0.368,0.105
0.372,0.115
0.376,0.125
0.380,0.115
0.384,0.105
0.388,0.100
0.392,0.095
0.396,0.085
0.400,0.070
0.404,0.055
0.408,0.040
0.412,0.025
0.416,0.010
0.420,-0.015
0.424,-0.025
0.428,-0.025
0.432,-0.025
0.436,-0.025
0.440,-0.025
0.444,-0.025
0.448,-0.025
0.452,-0.030
0.456,-0.035
0.460,-0.030
0.464,-0.020
0.468,-0.010
0.472,-0.005
0.476,-0.005
0.480,-0.010
0.484,-0.020
0.488,-0.020
0.492,-0.010
0.496,-0.005
0.500,-0.005
0.504,-0.010
0.508,-0.015
0.512,0.000
0.516,0.015
0.520,0.035
0.524,0.055
0.528,0.060
0.532,0.065
0.536,0.075
0.540,0.095
0.544,0.140
0.548,0.165
0.552,0.130
0.556,0.105
0.560,0.100
0.564,0.080
0.568,0.040
0.572,0.010
0.576,-0.005
0.580,-0.020
0.584,-0.035
0.588,-0.055
0.592,-0.080
0.596,-0.120
0.600,-0.165
0.604,-0.190
0.608,-0.200
0.612,-0.200
0.616,-0.190
0.620,-0.185
0.624,-0.180
0.628,-0.175
0.632,-0.175
0.636,-0.175
0.640,-0.175
0.644,-0.170
0.648,-0.160
0.652,-0.160
0.656,-0.170
0.660,-0.390
0.664,-0.620
0.668,-0.660
0.672,-0.685
0.676,-0.310
0.680,0.105
0.684,1.025
0.688,1.905
0.692,2.490
0.696,2.985
0.700,3.045
0.704,2.895
0.708,1.980
0.712,1.140
0.716,0.510
0.720,0.025
0.724,-0.150
0.728,-0.275
0.732,-0.320
0.736,-0.345
0.740,-0.345
0.744,-0.345
0.748,-0.350
0.752,-0.355
0.756,-0.355
0.760,-0.355
0.764,-0.360
0.768,-0.365
0.772,-0.360
0.776,-0.355
0.780,-0.355
0.784,-0.355
0.788,-0.350
0.792,-0.345
0.796,-0.350
0.800,-0.350
0.804,-0.340
0.808,-0.335
0.812,-0.335
0.816,-0.335
0.820,-0.330
0.824,-0.325
0.828,-0.325
0.832,-0.325
0.836,-0.315
0.840,-0.315
0.844,-0.315
0.848,-0.315
0.852,-0.315
0.856,-0.310
0.860,-0.305
0.864,-0.305
0.868,-0.305
0.872,-0.290
0.876,-0.275
0.880,-0.275
0.884,-0.275
0.888,-0.265
0.892,-0.255
0.896,-0.250
0.900,-0.235
0.904,-0.210
0.908,-0.195
0.912,-0.190
0.916,-0.180
0.920,-0.165
0.924,-0.150
0.928,-0.140
0.932,-0.120
0.936,-0.090
0.940,-0.070
0.944,-0.055
0.948,-0.035
0.952,-0.020
0.956,-0.005
0.960,0.020
0.964,0.025
0.968,0.025
0.972,0.025
0.976,0.025
0.980,0.020
0.984,0.010
0.988,0.000
0.992,-0.010
0.996,-0.035
1.000,-0.015
1.004,-0.075
1.008,-0.085
1.012,-0.100
1.016,-0.115
1.020,-0.110
1.024,-0.105
1.028,-0.105
1.032,-0.105
1.036,-0.100
1.040,-0.095
1.044,-0.095
1.048,-0.095
1.052,-0.090
1.056,-0.085
1.060,-0.080
1.064,-0.075
1.068,-0.085
1.072,-0.095
1.076,-0.090
1.080,-0.085
1.084,-0.085
1.088,-0.080
1.092,-0.070
1.096,-0.060
1.100,-0.045
1.104,-0.025
1.108,-0.005
1.112,0.005
1.116,0.000
1.120,0.000
1.124,0.010
1.128,0.055
1.132,0.110
1.136,0.110
1.140,0.090
1.144,0.070
1.148,0.050
1.152,0.020
1.156,-0.010
1.160,-0.035
1.164,-0.060
1.168,-0.090
1.172,-0.115
1.176,-0.130
1.180,-0.145
1.184,-0.180
1.188,-0.215
1.192,-0.230
1.196,-0.245
1.200,-0.245
1.204,-0.245
1.208,-0.240
1.212,-0.235
1.216,-0.245
1.220,-0.250
1.224,-0.215
1.228,-0.195
1.232,-0.190
1.236,-0.185
1.240,-0.190
1.244,-0.300
1.248,-0.540
1.252,-0.675
1.256,-0.695
1.260,-0.460
1.264,-0.005
1.268,0.740
1.272,1.675
1.276,2.315
1.280,2.785
1.284,2.945
1.288,2.965
1.292,2.320
1.296,1.425
1.300,0.775
1.304,0.195
1.308,-0.045
1.312,-0.220
1.316,-0.295
1.320,-0.360
1.324,-0.375
1.328,-0.390
1.332,-0.380
1.336,-0.355
1.340,-0.340
1.344,-0.325
1.348,-0.335
1.352,-0.345
1.356,-0.345
1.360,-0.345
1.364,-0.350
1.368,-0.355
1.372,-0.345
1.376,-0.340
1.380,-0.370
1.384,-0.395
1.388,-0.385
1.392,-0.365
1.396,-0.330
1.400,-0.305
1.404,-0.295
1.408,-0.295
1.412,-0.325
1.416,-0.345
1.420,-0.350
1.424,-0.345
1.428,-0.320
1.432,-0.300
1.436,-0.285
1.440,-0.280
1.444,-0.290
1.448,-0.295
1.452,-0.295
1.456,-0.285
1.460,-0.260
1.464,-0.255
1.468,-0.255
1.472,-0.255
1.476,-0.255
1.480,-0.245
1.484,-0.230
1.488,-0.220
1.492,-0.210
1.496,-0.185
1.500,-0.205
1.504,-0.135
1.508,-0.115
1.512,-0.110
1.516,-0.105
1.520,-0.080
1.524,-0.055
1.528,-0.045
1.532,-0.030
1.536,0.005
1.540,0.035
1.544,0.050
1.548,0.060
1.552,0.035
1.556,0.025
1.560,0.060
1.564,0.085
1.568,0.080
1.572,0.065
1.576,0.040
1.580,0.015
1.584,-0.020
1.588,-0.030
1.592,-0.015
1.596,-0.010
1.600,-0.025
1.604,-0.040
1.608,-0.050
1.612,-0.050
1.616,-0.040
1.620,-0.035
1.624,-0.030
1.628,-0.040
1.632,-0.065
1.636,-0.065
1.640,-0.050
1.644,-0.035
1.648,-0.020
1.652,-0.005
1.656,0.010
1.660,0.010
1.664,0.000
1.668,-0.025
1.672,-0.045
1.676,-0.035
1.680,-0.025
1.684,0.000
1.688,0.025
1.692,0.020
1.696,0.015
1.700,0.025
1.704,0.040
1.708,0.070
1.712,0.105
1.716,0.165
1.720,0.195
1.724,0.160
1.728,0.130
1.732,0.110
1.736,0.085
1.740,0.060
1.744,0.040
1.748,0.020
1.752,0.010
1.756,0.020
1.760,0.010
1.764,-0.030
1.768,-0.075
1.772,-0.130
1.776,-0.155
1.780,-0.150
1.784,-0.145
1.788,-0.145
1.792,-0.155
1.796,-0.170
1.800,-0.165
1.804,-0.150
1.808,-0.140
1.812,-0.130
1.816,-0.125
1.820,-0.130
1.824,-0.120
1.828,-0.100
1.832,-0.250
1.836,-0.415
1.840,-0.550
1.844,-0.665
1.848,-0.435
1.852,-0.130
1.856,0.780
1.860,1.645
1.864,2.310
1.868,2.880
1.872,3.065
1.876,2.990
1.880,2.130
1.884,1.325
1.888,0.640
1.892,0.115
1.896,-0.095
1.900,-0.235
1.904,-0.265
1.908,-0.285
1.912,-0.275
1.916,-0.265
1.920,-0.280
1.924,-0.285
1.928,-0.285
1.932,-0.285
1.936,-0.290
1.940,-0.290
1.944,-0.275
1.948,-0.270
1.952,-0.280
1.956,-0.285
1.960,-0.285
1.964,-0.285
1.968,-0.290
1.972,-0.290
1.976,-0.280
1.980,-0.275
1.984,-0.275
1.988,-0.270
1.992,-0.260
1.996,-0.255
2.000,-0.255
2.004,-0.260
2.008,-0.255
2.012,-0.255
2.016,-0.255
2.020,-0.245
2.024,-0.235
2.028,-0.235
2.032,-0.235
2.036,-0.240
2.040,-0.245
2.044,-0.220
2.048,-0.205
2.052,-0.195
2.056,-0.185
2.060,-0.190
2.064,-0.195
2.068,-0.190
2.072,-0.175
2.076,-0.145
2.080,-0.125
2.084,-0.125
2.088,-0.120
2.092,-0.105
2.096,-0.085
2.100,-0.065
2.104,-0.045
2.108,-0.025
2.112,-0.005
2.116,0.015
2.120,0.035
2.124,0.055
2.128,0.075
2.132,0.090
2.136,0.095
2.140,0.090
2.144,0.095
2.148,0.110
2.152,0.120
2.156,0.130
2.160,0.125
2.164,0.110
2.168,0.085
2.172,0.065
2.176,0.070
2.180,0.075
2.184,0.070
2.188,0.065
2.192,0.050
2.196,0.035
2.200,0.035
2.204,0.035
2.208,0.045
2.212,0.055
2.216,0.065
2.220,0.075
2.224,0.075
2.228,0.070
2.232,0.055
2.236,0.055
2.240,0.080
2.244,0.095
2.248,0.090
2.252,0.080
2.256,0.070
2.260,0.070
2.264,0.085
2.268,0.110
2.272,0.135
2.276,0.150
2.280,0.170
2.284,0.175
2.288,0.170
2.292,0.190
2.296,0.225
2.300,0.245
2.304,0.260
2.308,0.260
2.312,0.250
2.316,0.245
2.320,0.240
2.324,0.210
2.328,0.180
2.332,0.155
2.336,0.125
2.340,0.115
2.344,0.105
2.348,0.065
2.352,0.025
2.356,-0.005
2.360,-0.035
2.364,-0.035
2.368,-0.035
2.372,-0.015
2.376,0.005
2.380,0.000
2.384,-0.005
2.388,-0.015
2.392,-0.015
2.396,0.020
2.400,0.045
2.404,0.050
2.408,-0.025
2.412,-0.205
2.416,-0.350
2.420,-0.455
2.424,-0.380
2.428,-0.145
2.432,0.385
2.436,1.130
2.440,1.870
2.444,2.600
2.448,3.035
2.452,3.320
2.456,2.880
2.460,2.150
2.464,1.415
2.468,0.675
2.472,0.355
2.476,0.130
2.480,0.030
2.484,-0.045
2.488,-0.070
2.492,-0.090
2.496,-0.095
2.500,-0.095
2.504,-0.095
2.508,-0.085
2.512,-0.100
2.516,-0.115
2.520,-0.110
2.524,-0.105
2.528,-0.095
2.532,-0.085
2.536,-0.080
2.540,-0.075
2.544,-0.090
2.548,-0.105
2.552,-0.105
2.556,-0.100
2.560,-0.085
2.564,-0.075
2.568,-0.085
2.572,-0.095
2.576,-0.095
2.580,-0.095
2.584,-0.090
2.588,-0.080
2.592,-0.070
2.596,-0.065
2.600,-0.060
2.604,-0.050
2.608,-0.035
2.612,-0.025
2.616,-0.030
2.620,-0.035
2.624,-0.030
2.628,-0.020
2.632,-0.010
2.636,-0.005
2.640,0.000
2.644,0.015
2.648,0.030
2.652,0.040
2.656,0.050
2.660,0.060
2.664,0.070
2.668,0.080
2.672,0.085
2.676,0.110
2.680,0.135
2.684,0.120
2.688,0.110
2.692,0.150
2.696,0.185
2.700,0.205
2.704,0.225
2.708,0.230
2.712,0.240
2.716,0.270
2.720,0.295
2.724,0.300
2.728,0.305
2.732,0.300
2.736,0.295
2.740,0.295
2.744,0.290
2.748,0.275
2.752,0.265
2.756,0.260
2.760,0.250
2.764,0.235
2.768,0.220
2.772,0.210
2.776,0.200
2.780,0.180
2.784,0.175
2.788,0.180
2.792,0.185
2.796,0.185
2.800,0.190
2.804,0.200
2.808,0.205
2.812,0.210
2.816,0.210
2.820,0.200
2.824,0.195
2.828,0.200
2.832,0.205
2.836,0.205
2.840,0.190
2.844,0.175
2.848,0.180
2.852,0.185
2.856,0.195
2.860,0.205
2.864,0.215
2.868,0.230
2.872,0.260
2.876,0.280
2.880,0.260
2.884,0.245
2.888,0.255
2.892,0.275
2.896,0.320
2.900,0.345
2.904,0.355
2.908,0.360
2.912,0.340
2.916,0.310
2.920,0.275
2.924,0.245
2.928,0.220
2.932,0.195
2.936,0.175
2.940,0.140
2.944,0.100
2.948,0.065
2.952,0.030
2.956,0.015
2.960,0.010
2.964,0.010
2.968,0.020
2.972,0.025
2.976,0.020
2.980,0.015
2.984,0.015
2.988,0.025
2.992,0.040
2.996,0.060
3.000,0.045
3.004,-0.010
3.008,-0.110
3.012,-0.310
3.016,-0.490
3.020,-0.410
3.024,-0.230
3.028,0.545
3.032,1.320
3.036,2.110
3.040,2.785
3.044,3.085
3.048,3.140
3.052,2.545
3.056,1.890
3.060,1.115
3.064,0.520
3.068,0.225
3.072,0.025
3.076,-0.060
3.080,-0.115
3.084,-0.150
3.088,-0.165
3.092,-0.170
3.096,-0.175
3.100,-0.180
3.104,-0.185
3.108,-0.185
3.112,-0.185
3.116,-0.190
3.120,-0.195
3.124,-0.190
3.128,-0.185
3.132,-0.190
3.136,-0.195
3.140,-0.190
3.144,-0.185
3.148,-0.190
3.152,-0.195
3.156,-0.195
3.160,-0.195
3.164,-0.195
3.168,-0.195
3.172,-0.195
3.176,-0.195
3.180,-0.195
3.184,-0.190
3.188,-0.185
3.192,-0.180
3.196,-0.175
3.200,-0.185
3.204,-0.195
3.208,-0.180
3.212,-0.165
3.216,-0.170
3.220,-0.175
3.224,-0.165
3.228,-0.155
3.232,-0.145
3.236,-0.130
3.240,-0.110
3.244,-0.095
3.248,-0.090
3.252,-0.080
3.256,-0.070
3.260,-0.065
3.264,-0.060
3.268,-0.040
3.272,-0.015
3.276,0.000
3.280,0.010
3.284,0.025
3.288,0.040
3.292,0.055
3.296,0.070
3.300,0.090
3.304,0.110
3.308,0.125
3.312,0.140
3.316,0.140
3.320,0.130
3.324,0.125
3.328,0.120
3.332,0.100
3.336,0.075
3.340,0.070
3.344,0.065
3.348,0.050
3.352,0.035
3.356,0.015
3.360,-0.005
3.364,-0.015
3.368,-0.025
3.372,-0.015
3.376,-0.005
3.380,-0.020
3.384,-0.035
3.388,-0.030
3.392,-0.025
3.396,-0.025
3.400,-0.025
3.404,-0.030
3.408,-0.035
3.412,-0.030
3.416,-0.025
3.420,-0.025
3.424,-0.025
3.428,-0.025
3.432,-0.025
3.436,-0.030
3.440,-0.035
3.444,-0.035
3.448,-0.035
3.452,-0.035
3.456,-0.035
3.460,-0.035
3.464,-0.020
3.468,0.010
3.472,0.020
3.476,0.030
3.480,0.035
3.484,0.030
3.488,0.045
3.492,0.070
3.496,0.110
3.500,0.075
3.504,0.125
3.508,0.095
3.512,0.050
3.516,0.005
3.520,-0.005
3.524,-0.015
3.528,-0.035
3.532,-0.055
3.536,-0.070
3.540,-0.095
3.544,-0.140
3.548,-0.180
3.552,-0.200
3.556,-0.215
3.560,-0.205
3.564,-0.195
3.568,-0.200
3.572,-0.205
3.576,-0.195
3.580,-0.185
3.584,-0.185
3.588,-0.185
3.592,-0.180
3.596,-0.180
3.600,-0.190
3.604,-0.310
3.608,-0.505
3.612,-0.630
3.616,-0.715
3.620,-0.490
3.624,-0.130
3.628,0.675
3.632,1.630
3.636,2.275
3.640,2.845
3.644,2.925
3.648,2.910
3.652,2.080
3.656,1.155
3.660,0.600
3.664,0.065
3.668,-0.125
3.672,-0.305
3.676,-0.325
3.680,-0.345
3.684,-0.350
3.688,-0.355
3.692,-0.365
3.696,-0.375
3.700,-0.375
3.704,-0.375
3.708,-0.385
3.712,-0.395
3.716,-0.390
3.720,-0.385
3.724,-0.390
3.728,-0.395
3.732,-0.390
3.736,-0.385
3.740,-0.380
3.744,-0.375
3.748,-0.370
3.752,-0.370
3.756,-0.385
3.760,-0.395
3.764,-0.400
3.768,-0.405
3.772,-0.400
3.776,-0.390
3.780,-0.380
3.784,-0.375
3.788,-0.375
3.792,-0.375
3.796,-0.380
3.800,-0.385
3.804,-0.385
3.808,-0.385
3.812,-0.380
3.816,-0.370
3.820,-0.360
3.824,-0.355
3.828,-0.350
3.832,-0.345
3.836,-0.345
3.840,-0.320
3.844,-0.295
3.848,-0.285
3.852,-0.275
3.856,-0.270
3.860,-0.265
3.864,-0.255
3.868,-0.245
3.872,-0.230
3.876,-0.210
3.880,-0.190
3.884,-0.170
3.888,-0.150
3.892,-0.130
3.896,-0.115
3.900,-0.100
3.904,-0.080
3.908,-0.065
3.912,-0.065
3.916,-0.065
3.920,-0.070
3.924,-0.075
3.928,-0.080
3.932,-0.095
3.936,-0.115
3.940,-0.130
3.944,-0.145
3.948,-0.160
3.952,-0.170
3.956,-0.180
3.960,-0.190
3.964,-0.195
3.968,-0.200
3.972,-0.210
3.976,-0.220
3.980,-0.220
3.984,-0.210
3.988,-0.205
3.992,-0.205
3.996,-0.205
4.000,-0.205
4.004,-0.195
4.008,-0.195
4.012,-0.200
4.016,-0.205
4.020,-0.205
4.024,-0.205
4.028,-0.200
4.032,-0.195
4.036,-0.200
4.040,-0.205
4.044,-0.215
4.048,-0.225
4.052,-0.230
4.056,-0.230
4.060,-0.215
4.064,-0.210
4.068,-0.230
4.072,-0.245
4.076,-0.240
4.080,-0.225
4.084,-0.200
4.088,-0.180
4.092,-0.165
4.096,-0.155
4.100,-0.160
4.104,-0.150
4.108,-0.120
4.112,-0.090
4.116,-0.065
4.120,-0.070
4.124,-0.095
4.128,-0.135
4.132,-0.185
4.136,-0.210
4.140,-0.230
4.144,-0.250
4.148,-0.270
4.152,-0.285
4.156,-0.300
4.160,-0.320
4.164,-0.340
4.168,-0.365
4.172,-0.385
4.176,-0.390
4.180,-0.395
4.184,-0.385
4.188,-0.375
4.192,-0.370
4.196,-0.365
4.200,-0.355
4.204,-0.340
4.208,-0.310
4.212,-0.330
4.216,-0.510
4.220,-0.680
4.224,-0.825
4.228,-0.860
4.232,-0.675
4.236,-0.270
4.240,0.455
4.244,1.240
4.248,2.095
4.252,2.680
4.256,3.000
4.260,2.770
4.264,2.085
4.268,1.310
4.272,0.475
4.276,0.005
4.280,-0.260
4.284,-0.395
4.288,-0.470
4.292,-0.495
4.296,-0.495
4.300,-0.495
4.304,-0.500
4.308,-0.505
4.312,-0.505
4.316,-0.510
4.320,-0.520
4.324,-0.525
4.328,-0.530
4.332,-0.535
4.336,-0.535
4.340,-0.525
4.344,-0.515
4.348,-0.515
4.352,-0.515
4.356,-0.515
4.360,-0.515
4.364,-0.515
4.368,-0.515
4.372,-0.495
4.376,-0.475
4.380,-0.480
4.384,-0.485
4.388,-0.480
4.392,-0.475
4.396,-0.480
4.400,-0.485
4.404,-0.485
4.408,-0.485
4.412,-0.480
4.416,-0.475
4.420,-0.470
4.424,-0.460
4.428,-0.450
4.432,-0.445
4.436,-0.445
4.440,-0.435
4.444,-0.415
4.448,-0.405
4.452,-0.400
4.456,-0.390
4.460,-0.380
4.464,-0.370
4.468,-0.360
4.472,-0.345
4.476,-0.330
4.480,-0.325
4.484,-0.320
4.488,-0.290
4.492,-0.260
4.496,-0.240
4.500,-0.255
4.504,-0.200
4.508,-0.185
4.512,-0.170
4.516,-0.155
4.520,-0.135
4.524,-0.115
4.528,-0.110
4.532,-0.105
4.536,-0.115
4.540,-0.125
4.544,-0.140
4.548,-0.160
4.552,-0.180
4.556,-0.195
4.560,-0.200
4.564,-0.210
4.568,-0.225
4.572,-0.235
4.576,-0.245
4.580,-0.255
4.584,-0.255
4.588,-0.255
4.592,-0.250
4.596,-0.245
4.600,-0.240
4.604,-0.235
4.608,-0.240
4.612,-0.245
4.616,-0.240
4.620,-0.235
4.624,-0.235
4.628,-0.235
4.632,-0.235
4.636,-0.235
4.640,-0.230
4.644,-0.225
4.648,-0.225
4.652,-0.225
4.656,-0.225
4.660,-0.225
4.664,-0.230
4.668,-0.240
4.672,-0.245
4.676,-0.245
4.680,-0.245
4.684,-0.250
4.688,-0.255
4.692,-0.260
4.696,-0.265
4.700,-0.245
4.704,-0.225
4.708,-0.210
4.712,-0.195
4.716,-0.185
4.720,-0.175
4.724,-0.165
4.728,-0.145
4.732,-0.110
4.736,-0.085
4.740,-0.085
4.744,-0.100
4.748,-0.140
4.752,-0.170
4.756,-0.185
4.760,-0.205
4.764,-0.225
4.768,-0.235
4.772,-0.240
4.776,-0.260
4.780,-0.285
4.784,-0.310
4.788,-0.335
4.792,-0.345
4.796,-0.340
4.800,-0.335
4.804,-0.330
4.808,-0.325
4.812,-0.320
4.816,-0.310
4.820,-0.300
4.824,-0.285
4.828,-0.270
4.832,-0.310
4.836,-0.365
4.840,-0.590
4.844,-0.805
4.848,-0.785
4.852,-0.720
4.856,-0.275
4.860,0.255
4.864,1.220
4.868,2.100
4.872,2.635
4.876,3.020
4.880,2.940
4.884,2.595
4.888,1.605
4.892,0.770
4.896,0.220
4.900,-0.175
4.904,-0.325
4.908,-0.415
4.912,-0.420
4.916,-0.425
4.920,-0.430
4.924,-0.435
4.928,-0.440
4.932,-0.440
4.936,-0.430
4.940,-0.430
4.944,-0.445
4.948,-0.455
4.952,-0.455
4.956,-0.455
4.960,-0.450
4.964,-0.445
4.968,-0.445
4.972,-0.440
4.976,-0.430
4.980,-0.425
4.984,-0.425
4.988,-0.425
4.992,-0.430
4.996,-0.435
5.000,-0.435
5.004,-0.425
5.008,-0.415
5.012,-0.430
5.016,-0.445
5.020,-0.435
5.024,-0.425
5.028,-0.420
5.032,-0.415
5.036,-0.410
5.040,-0.405
5.044,-0.410
5.048,-0.415
5.052,-0.410
5.056,-0.405
5.060,-0.395
5.064,-0.385
5.068,-0.380
5.072,-0.370
5.076,-0.355
5.080,-0.345
5.084,-0.340
5.088,-0.330
5.092,-0.315
5.096,-0.300
5.100,-0.290
5.104,-0.280
5.108,-0.270
5.112,-0.260
5.116,-0.250
5.120,-0.230
5.124,-0.205
5.128,-0.190
5.132,-0.180
5.136,-0.160
5.140,-0.140
5.144,-0.130
5.148,-0.120
5.152,-0.110
5.156,-0.100
5.160,-0.100
5.164,-0.110
5.168,-0.135
5.172,-0.155
5.176,-0.165
5.180,-0.175
5.184,-0.185
5.188,-0.195
5.192,-0.210
5.196,-0.225
5.200,-0.230
5.204,-0.235
5.208,-0.235
5.212,-0.235
5.216,-0.235
5.220,-0.235
5.224,-0.235
5.228,-0.235
5.232,-0.235
5.236,-0.235
5.240,-0.225
5.244,-0.215
5.248,-0.215
5.252,-0.215
5.256,-0.215
5.260,-0.215
5.264,-0.215
5.268,-0.215
5.272,-0.215
5.276,-0.215
5.280,-0.220
5.284,-0.225
5.288,-0.230
5.292,-0.235
5.296,-0.235
5.300,-0.235
5.304,-0.240
5.308,-0.245
5.312,-0.245
5.316,-0.245
5.320,-0.250
5.324,-0.265
5.328,-0.280
5.332,-0.275
5.336,-0.255
5.340,-0.225
5.344,-0.195
5.348,-0.200
5.352,-0.205
5.356,-0.195
5.360,-0.180
5.364,-0.135
5.368,-0.095
5.372,-0.090
5.376,-0.095
5.380,-0.135
5.384,-0.170
5.388,-0.195
5.392,-0.215
5.396,-0.225
5.400,-0.240
5.404,-0.255
5.408,-0.275
5.412,-0.300
5.416,-0.325
5.420,-0.360
5.424,-0.375
5.428,-0.375
5.432,-0.370
5.436,-0.360
5.440,-0.350
5.444,-0.340
5.448,-0.335
5.452,-0.340
5.456,-0.335
5.460,-0.310
5.464,-0.340
5.468,-0.385
5.472,-0.580
5.476,-0.810
5.480,-0.820
5.484,-0.790
5.488,-0.335
5.492,0.170
5.496,1.150
5.500,0.195
5.504,2.655
5.508,3.125
5.512,2.835
5.516,2.485
5.520,1.520
5.524,0.625
5.528,0.180
5.532,-0.205
5.536,-0.335
5.540,-0.435
5.544,-0.460
5.548,-0.475
5.552,-0.475
5.556,-0.475
5.560,-0.470
5.564,-0.465
5.568,-0.470
5.572,-0.475
5.576,-0.480
5.580,-0.485
5.584,-0.485
5.588,-0.485
5.592,-0.480
5.596,-0.475
5.600,-0.475
5.604,-0.475
5.608,-0.480
5.612,-0.485
5.616,-0.485
5.620,-0.480
5.624,-0.470
5.628,-0.465
5.632,-0.460
5.636,-0.455
5.640,-0.455
5.644,-0.455
5.648,-0.455
5.652,-0.450
5.656,-0.440
5.660,-0.435
5.664,-0.435
5.668,-0.425
5.672,-0.415
5.676,-0.405
5.680,-0.395
5.684,-0.385
5.688,-0.375
5.692,-0.370
5.696,-0.365
5.700,-0.355
5.704,-0.345
5.708,-0.330
5.712,-0.315
5.716,-0.300
5.720,-0.285
5.724,-0.265
5.728,-0.250
5.732,-0.235
5.736,-0.220
5.740,-0.205
5.744,-0.195
5.748,-0.185
5.752,-0.165
5.756,-0.140
5.760,-0.120
5.764,-0.110
5.768,-0.100
5.772,-0.090
5.776,-0.085
5.780,-0.080
5.784,-0.075
5.788,-0.080
5.792,-0.095
5.796,-0.110
5.800,-0.125
5.804,-0.140
5.808,-0.155
5.812,-0.170
5.816,-0.180
5.820,-0.190
5.824,-0.195
5.828,-0.200
5.832,-0.205
5.836,-0.215
5.840,-0.210
5.844,-0.205
5.848,-0.210
5.852,-0.215
5.856,-0.210
5.860,-0.205
5.864,-0.205
5.868,-0.205
5.872,-0.200
5.876,-0.195
5.880,-0.195
5.884,-0.195
5.888,-0.190
5.892,-0.185
5.896,-0.190
5.900,-0.195
5.904,-0.195
5.908,-0.195
5.912,-0.200
5.916,-0.205
5.920,-0.205
5.924,-0.205
5.928,-0.205
5.932,-0.205
5.936,-0.210
5.940,-0.220
5.944,-0.230
5.948,-0.235
5.952,-0.240
5.956,-0.245
5.960,-0.245
5.964,-0.220
5.968,-0.185
5.972,-0.165
5.976,-0.150
5.980,-0.145
5.984,-0.140
5.988,-0.125
5.992,-0.110
5.996,-0.075
6.000,-0.105
6.004,-0.035
6.008,-0.035
6.012,-0.085
6.016,-0.135
6.020,-0.150
6.024,-0.165
6.028,-0.180
6.032,-0.195
6.036,-0.210
6.040,-0.230
6.044,-0.260
6.048,-0.290
6.052,-0.310
6.056,-0.325
6.060,-0.325
6.064,-0.325
6.068,-0.320
6.072,-0.315
6.076,-0.310
6.080,-0.305
6.084,-0.300
6.088,-0.285
6.092,-0.265
6.096,-0.285
6.100,-0.340
6.104,-0.495
6.108,-0.715
6.112,-0.775
6.116,-0.745
6.120,-0.445
6.124,-0.030
6.128,0.760
6.132,1.675
6.136,2.320
6.140,2.895
6.144,2.910
6.148,2.820
6.152,1.935
6.156,0.960
6.160,0.420
6.164,-0.085
6.168,-0.245
6.172,-0.395
6.176,-0.410
6.180,-0.425
6.184,-0.425
6.188,-0.425
6.192,-0.430
6.196,-0.435
6.200,-0.440
6.204,-0.445
6.208,-0.445
6.212,-0.445
6.216,-0.440
6.220,-0.435
6.224,-0.435
6.228,-0.435
6.232,-0.440
6.236,-0.445
6.240,-0.445
6.244,-0.445
6.248,-0.440
6.252,-0.435
6.256,-0.435
6.260,-0.435
6.264,-0.430
6.268,-0.425
6.272,-0.425
6.276,-0.425
6.280,-0.420
6.284,-0.415
6.288,-0.420
6.292,-0.415
6.296,-0.400
6.300,-0.395
6.304,-0.390
6.308,-0.380
6.312,-0.370
6.316,-0.365
6.320,-0.365
6.324,-0.355
6.328,-0.340
6.332,-0.335
6.336,-0.335
6.340,-0.325
6.344,-0.315
6.348,-0.305
6.352,-0.295
6.356,-0.285
6.360,-0.275
6.364,-0.260
6.368,-0.245
6.372,-0.230
6.376,-0.210
6.380,-0.190
6.384,-0.175
6.388,-0.160
6.392,-0.140
6.396,-0.125
6.400,-0.110
6.404,-0.090
6.408,-0.075
6.412,-0.070
6.416,-0.065
6.420,-0.070
6.424,-0.075
6.428,-0.075
6.432,-0.080
6.436,-0.095
6.440,-0.110
6.444,-0.120
6.448,-0.140
6.452,-0.165
6.456,-0.175
6.460,-0.175
6.464,-0.175
6.468,-0.180
6.472,-0.185
6.476,-0.185
6.480,-0.185
6.484,-0.190
6.488,-0.195
6.492,-0.195
6.496,-0.190
6.500,-0.195
6.504,-0.175
6.508,-0.175
6.512,-0.185
6.516,-0.195
6.520,-0.190
6.524,-0.185
6.528,-0.185
6.532,-0.185
6.536,-0.185
6.540,-0.185
6.544,-0.190
6.548,-0.195
6.552,-0.195
6.556,-0.195
6.560,-0.190
6.564,-0.185
6.568,-0.190
6.572,-0.200
6.576,-0.215
6.580,-0.225
6.584,-0.220
6.588,-0.215
6.592,-0.210
6.596,-0.210
6.600,-0.225
6.604,-0.225
6.608,-0.205
6.612,-0.185
6.616,-0.165
6.620,-0.145
6.624,-0.130
6.628,-0.120
6.632,-0.110
6.636,-0.080
6.640,-0.045
6.644,-0.035
6.648,-0.030
6.652,-0.050
6.656,-0.080
6.660,-0.105
6.664,-0.130
6.668,-0.155
6.672,-0.175
6.676,-0.190
6.680,-0.205
6.684,-0.230
6.688,-0.255
6.692,-0.275
6.696,-0.295
6.700,-0.305
6.704,-0.315
6.708,-0.300
6.712,-0.285
6.716,-0.280
6.720,-0.275
6.724,-0.270
6.728,-0.260
6.732,-0.245
6.736,-0.235
6.740,-0.235
6.744,-0.320
6.748,-0.510
6.752,-0.645
6.756,-0.735
6.760,-0.565
6.764,-0.175
6.768,0.555
6.772,1.525
6.776,2.225
6.780,2.770
6.784,2.965
6.788,3.005
6.792,2.340
6.796,1.420
6.800,0.715
6.804,0.075
6.808,-0.165
6.812,-0.325
6.816,-0.355
6.820,-0.370
6.824,-0.380
6.828,-0.390
6.832,-0.395
6.836,-0.395
6.840,-0.395
6.844,-0.395
6.848,-0.400
6.852,-0.405
6.856,-0.400
6.860,-0.395
6.864,-0.395
6.868,-0.395
6.872,-0.390
6.876,-0.385
6.880,-0.390
6.884,-0.395
6.888,-0.395
6.892,-0.395
6.896,-0.395
6.900,-0.395
6.904,-0.390
6.908,-0.385
6.912,-0.380
6.916,-0.375
6.920,-0.380
6.924,-0.380
6.928,-0.370
6.932,-0.360
6.936,-0.350
6.940,-0.345
6.944,-0.340
6.948,-0.335
6.952,-0.330
6.956,-0.325
6.960,-0.320
6.964,-0.310
6.968,-0.300
6.972,-0.290
6.976,-0.280
6.980,-0.275
6.984,-0.275
6.988,-0.265
6.992,-0.250
6.996,-0.235
7.000,-0.245
7.004,-0.195
7.008,-0.175
7.012,-0.170
7.016,-0.165
7.020,-0.135
7.024,-0.105
7.028,-0.085
7.032,-0.065
7.036,-0.050
7.040,-0.035
7.044,-0.025
7.048,-0.015
7.052,-0.020
7.056,-0.020
7.060,0.005
7.064,0.025
7.068,0.015
7.072,0.000
7.076,-0.015
7.080,-0.030
7.084,-0.055
7.088,-0.070
7.092,-0.080
7.096,-0.095
7.100,-0.125
7.104,-0.135
7.108,-0.140
7.112,-0.145
7.116,-0.145
7.120,-0.145
7.124,-0.140
7.128,-0.135
7.132,-0.140
7.136,-0.145
7.140,-0.140
7.144,-0.135
7.148,-0.135
7.152,-0.135
7.156,-0.130
7.160,-0.125
7.164,-0.130
7.168,-0.135
7.172,-0.135
7.176,-0.135
7.180,-0.135
7.184,-0.135
7.188,-0.135
7.192,-0.140
7.196,-0.145
7.200,-0.145
7.204,-0.145
7.208,-0.150
7.212,-0.155
7.216,-0.150
7.220,-0.145
7.224,-0.145
7.228,-0.145
7.232,-0.150
7.236,-0.155
7.240,-0.145
7.244,-0.135
7.248,-0.145
7.252,-0.145
7.256,-0.125
7.260,-0.105
7.264,-0.085
7.268,-0.075
7.272,-0.070
7.276,-0.060
7.280,-0.050
7.284,-0.015
7.288,0.030
7.292,0.045
7.296,0.050
7.300,0.035
7.304,0.005
7.308,-0.030
7.312,-0.060
7.316,-0.070
7.320,-0.080
7.324,-0.095
7.328,-0.110
7.332,-0.140
7.336,-0.175
7.340,-0.190
7.344,-0.205
7.348,-0.215
7.352,-0.225
7.356,-0.210
7.360,-0.195
7.364,-0.190
7.368,-0.185
7.372,-0.170
7.376,-0.150
7.380,-0.130
7.384,-0.160
7.388,-0.310
7.392,-0.470
7.396,-0.645
7.400,-0.685
7.404,-0.495
7.408,-0.075
7.412,0.645
7.416,1.420
7.420,2.260
7.424,2.830
7.428,3.160
7.432,2.975
7.436,2.405
7.440,1.640
7.444,0.765
7.448,0.270
7.452,-0.035
7.456,-0.185
7.460,-0.270
7.464,-0.300
7.468,-0.310
7.472,-0.315
7.476,-0.320
7.480,-0.325
7.484,-0.325
7.488,-0.325
7.492,-0.325
7.496,-0.325
7.500,-0.325
7.504,-0.310
7.508,-0.305
7.512,-0.315
7.516,-0.325
7.520,-0.315
7.524,-0.305
7.528,-0.300
7.532,-0.295
7.536,-0.295
7.540,-0.295
7.544,-0.295
7.548,-0.295
7.552,-0.290
7.556,-0.285
7.560,-0.285
7.564,-0.285
7.568,-0.275
7.572,-0.265
7.576,-0.270
7.580,-0.275
7.584,-0.270
7.588,-0.265
7.592,-0.265
7.596,-0.265
7.600,-0.260
7.604,-0.250
7.608,-0.240
7.612,-0.235
7.616,-0.235
7.620,-0.225
7.624,-0.210
7.628,-0.200
7.632,-0.190
7.636,-0.180
7.640,-0.170
7.644,-0.155
7.648,-0.140
7.652,-0.120
7.656,-0.100
7.660,-0.095
7.664,-0.090
7.668,-0.060
7.672,-0.035
7.676,-0.025
7.680,-0.015
7.684,0.010
7.688,0.035
7.692,0.040
7.696,0.045
7.700,0.045
7.704,0.045
7.708,0.050
7.712,0.055
7.716,0.045
7.720,0.035
7.724,0.025
7.728,0.010
7.732,-0.015
7.736,-0.035
7.740,-0.040
7.744,-0.045
7.748,-0.050
7.752,-0.060
7.756,-0.070
7.760,-0.075
7.764,-0.080
7.768,-0.085
7.772,-0.080
7.776,-0.075
7.780,-0.070
7.784,-0.065
7.788,-0.065
7.792,-0.065
7.796,-0.065
7.800,-0.065
7.804,-0.060
7.808,-0.055
7.812,-0.050
7.816,-0.045
7.820,-0.050
7.824,-0.055
7.828,-0.055
7.832,-0.055
7.836,-0.055
7.840,-0.055
7.844,-0.055
7.848,-0.060
7.852,-0.065
7.856,-0.065
7.860,-0.065
7.864,-0.070
7.868,-0.075
7.872,-0.075
7.876,-0.075
7.880,-0.085
7.884,-0.095
7.888,-0.090
7.892,-0.085
7.896,-0.095
7.900,-0.105
7.904,-0.095
7.908,-0.075
7.912,-0.050
7.916,-0.035
7.920,-0.030
7.924,-0.015
7.928,0.005
7.932,0.020
7.936,0.035
7.940,0.060
7.944,0.090
7.948,0.095
7.952,0.075
7.956,0.035
7.960,-0.010
7.964,-0.035
7.968,-0.050
7.972,-0.060
7.976,-0.070
7.980,-0.095
7.984,-0.120
7.988,-0.150
7.992,-0.180
7.996,-0.185
8.000,-0.185
8.004,-0.185
8.008,-0.175
8.012,-0.180
8.016,-0.185
8.020,-0.175
8.024,-0.165
8.028,-0.150
8.032,-0.135
8.036,-0.130
8.040,-0.175
8.044,-0.390
8.048,-0.560
8.052,-0.630
8.056,-0.575
8.060,-0.265
8.064,0.265
8.068,1.145
8.072,1.925
8.076,2.565
8.080,2.970
8.084,3.120
8.088,2.715
8.092,1.785
8.096,1.015
8.100,0.375
8.104,0.020
8.108,-0.160
8.112,-0.245
8.116,-0.280
8.120,-0.295
8.124,-0.295
8.128,-0.295
8.132,-0.295
8.136,-0.295
8.140,-0.300
8.144,-0.305
8.148,-0.300
8.152,-0.295
8.156,-0.290
8.160,-0.285
8.164,-0.290
8.168,-0.290
8.172,-0.285
8.176,-0.285
8.180,-0.285
8.184,-0.280
8.188,-0.275
8.192,-0.275
8.196,-0.275
8.200,-0.275
8.204,-0.275
8.208,-0.270
8.212,-0.265
8.216,-0.255
8.220,-0.245
8.224,-0.245
8.228,-0.245
8.232,-0.245
8.236,-0.245
8.240,-0.240
8.244,-0.235
8.248,-0.225
8.252,-0.215
8.256,-0.215
8.260,-0.215
8.264,-0.210
8.268,-0.195
8.272,-0.175
8.276,-0.160
8.280,-0.150
8.284,-0.140
8.288,-0.130
8.292,-0.115
8.296,-0.100
8.300,-0.080
8.304,-0.060
8.308,-0.050
8.312,-0.040
8.316,-0.020
8.320,0.000
8.324,0.020
8.328,0.040
8.332,0.055
8.336,0.075
8.340,0.080
8.344,0.085
8.348,0.090
8.352,0.095
8.356,0.090
8.360,0.085
8.364,0.070
8.368,0.055
8.372,0.040
8.376,0.020
8.380,0.000
8.384,-0.015
8.388,-0.030
8.392,-0.045
8.396,-0.055
8.400,-0.065
8.404,-0.060
8.408,-0.055
8.412,-0.060
8.416,-0.065
8.420,-0.060
8.424,-0.055
8.428,-0.055
8.432,-0.055
8.436,-0.050
8.440,-0.045
8.444,-0.040
8.448,-0.035
8.452,-0.035
8.456,-0.035
8.460,-0.030
8.464,-0.025
8.468,-0.025
8.472,-0.025
8.476,-0.025
8.480,-0.030
8.484,-0.040
8.488,-0.045
8.492,-0.040
8.496,-0.035
8.500,-0.035
8.504,-0.040
8.508,-0.045
8.512,-0.050
8.516,-0.055
8.520,-0.060
8.524,-0.065
8.528,-0.065
8.532,-0.065
8.536,-0.070
8.540,-0.075
8.544,-0.085
8.548,-0.095
8.552,-0.095
8.556,-0.095
8.560,-0.100
8.564,-0.100
8.568,-0.070
8.572,-0.045
8.576,-0.020
8.580,-0.005
8.584,0.000
8.588,0.010
8.592,0.025
8.596,0.055
8.600,0.090
8.604,0.105
8.608,0.100
8.612,0.060
8.616,0.005
8.620,-0.025
8.624,-0.040
8.628,-0.060
8.632,-0.080
8.636,-0.095
8.640,-0.110
8.644,-0.140
8.648,-0.170
8.652,-0.185
8.656,-0.200
8.660,-0.205
8.664,-0.200
8.668,-0.185
8.672,-0.175
8.676,-0.170
8.680,-0.165
8.684,-0.160
8.688,-0.155
8.692,-0.135
8.696,-0.125
8.700,-0.190
8.704,-0.285
8.708,-0.465
8.712,-0.600
8.716,-0.580
8.720,-0.400
8.724,0.145
8.728,0.815
8.732,1.705
8.736,2.420
8.740,2.875
8.744,3.045
8.748,2.860
8.752,2.305
8.756,1.375
8.760,0.695
8.764,0.220
8.768,-0.050
8.772,-0.185
8.776,-0.245
8.780,-0.265
8.784,-0.275
8.788,-0.280
8.792,-0.290
8.796,-0.300
8.800,-0.310
8.804,-0.320
8.808,-0.320
8.812,-0.310
8.816,-0.305
8.820,-0.300
8.824,-0.295
8.828,-0.295
8.832,-0.300
8.836,-0.315
8.840,-0.310
8.844,-0.305
8.848,-0.305
8.852,-0.305
8.856,-0.305
8.860,-0.305
8.864,-0.305
8.868,-0.305
8.872,-0.295
8.876,-0.285
8.880,-0.290
8.884,-0.295
8.888,-0.295
8.892,-0.295
8.896,-0.295
8.900,-0.295
8.904,-0.285
8.908,-0.275
8.912,-0.270
8.916,-0.265
8.920,-0.260
8.924,-0.250
8.928,-0.240
8.932,-0.230
8.936,-0.220
8.940,-0.210
8.944,-0.195
8.948,-0.175
8.952,-0.160
8.956,-0.150
8.960,-0.140
8.964,-0.120
8.968,-0.100
8.972,-0.085
8.976,-0.070
8.980,-0.055
8.984,-0.040
8.988,-0.025
8.992,-0.010
8.996,0.005
9.000,-0.005
9.004,0.040
9.008,0.055
9.012,0.055
9.016,0.055
9.020,0.055
9.024,0.055
9.028,0.035
9.032,0.015
9.036,0.000
9.040,-0.015
9.044,-0.040
9.048,-0.055
9.052,-0.065
9.056,-0.075
9.060,-0.085
9.064,-0.095
9.068,-0.095
9.072,-0.095
9.076,-0.100
9.080,-0.105
9.084,-0.105
9.088,-0.105
9.092,-0.100
9.096,-0.095
9.100,-0.095
9.104,-0.095
9.108,-0.090
9.112,-0.085
9.116,-0.080
9.120,-0.075
9.124,-0.075
9.128,-0.075
9.132,-0.075
9.136,-0.080
9.140,-0.090
9.144,-0.095
9.148,-0.095
9.152,-0.100
9.156,-0.110
9.160,-0.120
9.164,-0.130
9.168,-0.130
9.172,-0.125
9.176,-0.125
9.180,-0.125
9.184,-0.120
9.188,-0.115
9.192,-0.125
9.196,-0.135
9.200,-0.135
9.204,-0.135
9.208,-0.130
9.212,-0.125
9.216,-0.135
9.220,-0.145
9.224,-0.145
9.228,-0.140
9.232,-0.120
9.236,-0.100
9.240,-0.080
9.244,-0.065
9.248,-0.060
9.252,-0.050
9.256,-0.040
9.260,-0.015
9.264,0.025
9.268,0.050
9.272,0.060
9.276,0.040
9.280,0.000
9.284,-0.030
9.288,-0.055
9.292,-0.070
9.296,-0.080
9.300,-0.100
9.304,-0.120
9.308,-0.145
9.312,-0.170
9.316,-0.185
9.320,-0.200
9.324,-0.205
9.328,-0.210
9.332,-0.210
9.336,-0.195
9.340,-0.185
9.344,-0.175
9.348,-0.175
9.352,-0.175
9.356,-0.165
9.360,-0.155
9.364,-0.160
9.368,-0.200
9.372,-0.395
9.376,-0.555
9.380,-0.600
9.384,-0.520
9.388,-0.120
9.392,0.465
9.396,1.395
9.400,2.175
9.404,2.710
9.408,2.985
9.412,2.915
9.416,2.435
9.420,1.525
9.424,0.800
9.428,0.235
9.432,-0.075
9.436,-0.205
9.440,-0.260
9.444,-0.275
9.448,-0.290
9.452,-0.300
9.456,-0.305
9.460,-0.300
9.464,-0.295
9.468,-0.295
9.472,-0.295
9.476,-0.295
9.480,-0.295
9.484,-0.295
9.488,-0.295
9.492,-0.290
9.496,-0.285
9.500,-0.285
9.504,-0.280
9.508,-0.275
9.512,-0.280
9.516,-0.285
9.520,-0.275
9.524,-0.265
9.528,-0.265
9.532,-0.265
9.536,-0.260
9.540,-0.255
9.544,-0.260
9.548,-0.265
9.552,-0.260
9.556,-0.255
9.560,-0.250
9.564,-0.245
9.568,-0.235
9.572,-0.225
9.576,-0.230
9.580,-0.235
9.584,-0.235
9.588,-0.225
9.592,-0.205
9.596,-0.195
9.600,-0.195
9.604,-0.190
9.608,-0.180
9.612,-0.165
9.616,-0.150
9.620,-0.135
9.624,-0.115
9.628,-0.105
9.632,-0.100
9.636,-0.080
9.640,-0.060
9.644,-0.050
9.648,-0.040
9.652,-0.010
9.656,0.020
9.660,0.030
9.664,0.040
9.668,0.060
9.672,0.075
9.676,0.080
9.680,0.085
9.684,0.095
9.688,0.105
9.692,0.090
9.696,0.075
9.700,0.065
9.704,0.055
9.708,0.040
9.712,0.025
9.716,0.010
9.720,-0.005
9.724,-0.010
9.728,-0.015
9.732,-0.025
9.736,-0.035
9.740,-0.035
9.744,-0.035
9.748,-0.035
9.752,-0.035
9.756,-0.035
9.760,-0.035
9.764,-0.035
9.768,-0.030
9.772,-0.015
9.776,-0.005
9.780,-0.010
9.784,-0.015
9.788,-0.015
9.792,-0.015
9.796,-0.020
9.800,-0.025
9.804,-0.020
9.808,-0.015
9.812,-0.015
9.816,-0.015
9.820,-0.015
9.824,-0.020
9.828,-0.030
9.832,-0.035
9.836,-0.035
9.840,-0.035
9.844,-0.035
9.848,-0.045
9.852,-0.055
9.856,-0.055
9.860,-0.055
9.864,-0.060
9.868,-0.065
9.872,-0.070
9.876,-0.075
9.880,-0.080
9.884,-0.085
9.888,-0.090
9.892,-0.095
9.896,-0.100
9.900,-0.095
9.904,-0.060
9.908,-0.035
9.912,-0.025
9.916,-0.015
9.920,0.000
9.924,0.010
9.928,0.020
9.932,0.045
9.936,0.085
9.940,0.105
9.944,0.100
9.948,0.060
9.952,0.005
9.956,-0.025
9.960,-0.040
9.964,-0.050
9.968,-0.060
9.972,-0.075
9.976,-0.090
9.980,-0.110
9.984,-0.130
9.988,-0.150
9.992,-0.170
9.996,-0.175
