0.000,0.175
0.004,0.240
0.008,0.255
0.012,0.270
0.016,0.285
0.020,0.300
0.024,0.315
0.028,0.310
0.032,0.305
0.036,0.285
0.040,0.265
0.044,0.240
0.048,0.220
0.052,0.190
0.056,0.160
0.060,0.145
0.064,0.125
0.068,0.095
0.072,0.065
0.076,0.040
0.080,0.020
0.084,0.005
0.088,-0.010
0.092,-0.020
0.096,-0.030
0.100,-0.045
0.104,-0.055
0.108,-0.060
0.112,-0.065
0.116,-0.060
0.120,-0.060
0.124,-0.070
0.128,-0.075
0.132,-0.080
0.136,-0.085
0.140,-0.090
0.144,-0.095
0.148,-0.090
0.152,-0.085
0.156,-0.080
0.160,-0.075
0.164,-0.080
0.168,-0.090
0.172,-0.095
0.176,-0.090
0.180,-0.085
0.184,-0.085
0.188,-0.085
0.192,-0.085
0.196,-0.085
0.200,-0.090
0.204,-0.095
0.208,-0.095
0.212,-0.095
0.216,-0.090
0.220,-0.085
0.224,-0.090
0.228,-0.095
0.232,-0.105
0.236,-0.115
0.240,-0.115
0.244,-0.115
0.248,-0.105
0.252,-0.095
0.256,-0.100
0.260,-0.105
0.264,-0.110
0.268,-0.115
0.272,-0.115
0.276,-0.115
0.280,-0.110
0.284,-0.105
0.288,-0.110
0.292,-0.115
0.296,-0.120
0.300,-0.120
0.304,-0.110
0.308,-0.105
0.312,-0.110
0.316,-0.115
0.320,-0.120
0.324,-0.125
0.328,-0.130
0.332,-0.135
0.336,-0.125
0.340,-0.120
0.344,-0.115
0.348,-0.115
0.352,-0.115
0.356,-0.125
0.360,-0.135
0.364,-0.135
0.368,-0.135
0.372,-0.130
0.376,-0.125
0.380,-0.125
0.384,-0.125
0.388,-0.125
0.392,-0.125
0.396,-0.120
0.400,-0.115
0.404,-0.115
0.408,-0.115
0.412,-0.125
0.416,-0.135
0.420,-0.135
0.424,-0.135
0.428,-0.135
0.432,-0.135
0.436,-0.130
0.440,-0.125
0.444,-0.125
0.448,-0.125
0.452,-0.125
0.456,-0.125
0.460,-0.120
0.464,-0.115
0.468,-0.120
0.472,-0.125
0.476,-0.125
0.480,-0.125
0.484,-0.120
0.488,-0.125
0.492,-0.140
0.496,-0.135
0.500,-0.145
0.504,-0.115
0.508,-0.115
0.512,-0.120
0.516,-0.125
0.520,-0.120
0.524,-0.115
0.528,-0.105
0.532,-0.095
0.536,-0.100
0.540,-0.105
0.544,-0.115
0.548,-0.125
0.552,-0.125
0.556,-0.115
0.560,-0.080
0.564,-0.045
0.568,-0.015
0.572,0.010
0.576,0.025
0.580,0.035
0.584,0.020
0.588,0.005
0.592,-0.015
0.596,-0.035
0.600,-0.055
0.604,-0.080
0.608,-0.105
0.612,-0.120
0.616,-0.130
0.620,-0.130
0.624,-0.120
0.628,-0.115
0.632,-0.120
0.636,-0.125
0.640,-0.125
0.644,-0.120
0.648,-0.110
0.652,-0.105
0.656,-0.110
0.660,-0.115
0.664,-0.120
0.668,-0.125
0.672,-0.125
0.676,-0.130
0.680,-0.135
0.684,-0.130
0.688,-0.125
0.692,-0.115
0.696,-0.105
0.700,-0.105
0.704,-0.105
0.708,-0.095
0.712,-0.110
0.716,-0.205
0.720,-0.280
0.724,-0.300
0.728,-0.255
0.732,-0.075
0.736,0.225
0.740,0.695
0.744,1.150
0.748,1.585
0.752,1.555
0.756,1.045
0.760,0.520
0.764,-0.020
0.768,-0.320
0.772,-0.455
0.776,-0.470
0.780,-0.415
0.784,-0.340
0.788,-0.260
0.792,-0.190
0.796,-0.130
0.800,-0.115
0.804,-0.120
0.808,-0.125
0.812,-0.125
0.816,-0.135
0.820,-0.150
0.824,-0.155
0.828,-0.150
0.832,-0.140
0.836,-0.125
0.840,-0.130
0.844,-0.135
0.848,-0.135
0.852,-0.135
0.856,-0.140
0.860,-0.145
0.864,-0.150
0.868,-0.155
0.872,-0.145
0.876,-0.135
0.880,-0.130
0.884,-0.125
0.888,-0.120
0.892,-0.115
0.896,-0.120
0.900,-0.125
0.904,-0.120
0.908,-0.115
0.912,-0.110
0.916,-0.105
0.920,-0.105
0.924,-0.105
0.928,-0.105
0.932,-0.100
0.936,-0.085
0.940,-0.075
0.944,-0.075
0.948,-0.070
0.952,-0.060
0.956,-0.045
0.960,-0.030
0.964,-0.025
0.968,-0.025
0.972,-0.020
0.976,-0.010
0.980,-0.005
0.984,0.000
0.988,0.005
0.992,0.000
0.996,0.020
1.000,-0.005
1.004,0.070
1.008,0.085
1.012,0.090
1.016,0.095
1.020,0.115
1.024,0.135
1.028,0.155
1.032,0.175
1.036,0.185
1.040,0.195
1.044,0.210
1.048,0.225
1.052,0.230
1.056,0.240
1.060,0.255
1.064,0.265
1.068,0.265
1.072,0.260
1.076,0.240
1.080,0.225
1.084,0.210
1.088,0.190
1.092,0.155
1.096,0.120
1.100,0.090
1.104,0.060
1.108,0.030
1.112,0.005
1.116,-0.015
1.120,-0.030
1.124,-0.040
1.128,-0.060
1.132,-0.080
1.136,-0.090
1.140,-0.100
1.144,-0.105
1.148,-0.105
1.152,-0.105
1.156,-0.105
1.160,-0.110
1.164,-0.120
1.168,-0.125
1.172,-0.125
1.176,-0.135
1.180,-0.145
1.184,-0.135
1.188,-0.125
1.192,-0.125
1.196,-0.125
1.200,-0.130
1.204,-0.135
1.208,-0.125
1.212,-0.115
1.216,-0.115
1.220,-0.115
1.224,-0.120
1.228,-0.125
1.232,-0.125
1.236,-0.125
1.240,-0.135
1.244,-0.140
1.248,-0.125
1.252,-0.115
1.256,-0.120
1.260,-0.125
1.264,-0.125
1.268,-0.125
1.272,-0.120
1.276,-0.115
1.280,-0.120
1.284,-0.125
1.288,-0.130
1.292,-0.135
1.296,-0.135
1.300,-0.145
1.304,-0.160
1.308,-0.160
1.312,-0.150
1.316,-0.140
1.320,-0.130
1.324,-0.125
1.328,-0.130
1.332,-0.135
1.336,-0.125
1.340,-0.125
1.344,-0.125
1.348,-0.125
1.352,-0.125
1.356,-0.130
1.360,-0.135
1.364,-0.140
1.368,-0.145
1.372,-0.135
1.376,-0.125
1.380,-0.125
1.384,-0.125
1.388,-0.130
1.392,-0.135
1.396,-0.125
1.400,-0.115
1.404,-0.115
1.408,-0.115
1.412,-0.125
1.416,-0.130
1.420,-0.115
1.424,-0.100
1.428,-0.090
1.432,-0.065
1.436,-0.030
1.440,-0.015
1.444,-0.010
1.448,-0.025
1.452,-0.055
1.456,-0.065
1.460,-0.065
1.464,-0.075
1.468,-0.090
1.472,-0.095
1.476,-0.100
1.480,-0.115
1.484,-0.130
1.488,-0.130
1.492,-0.120
1.496,-0.120
1.500,-0.115
1.504,-0.135
1.508,-0.135
1.512,-0.135
1.516,-0.135
1.520,-0.135
1.524,-0.135
1.528,-0.130
1.532,-0.125
1.536,-0.130
1.540,-0.135
1.544,-0.140
1.548,-0.145
1.552,-0.130
1.556,-0.115
1.560,-0.120
1.564,-0.125
1.568,-0.115
1.572,-0.105
1.576,-0.105
1.580,-0.105
1.584,-0.090
1.588,-0.110
1.592,-0.170
1.596,-0.240
1.600,-0.330
1.604,-0.310
1.608,-0.220
1.612,0.050
1.616,0.405
1.620,0.900
1.624,1.455
1.628,1.550
1.632,1.490
1.636,0.885
1.640,0.145
1.644,-0.195
1.648,-0.465
1.652,-0.460
1.656,-0.420
1.660,-0.340
1.664,-0.260
1.668,-0.190
1.672,-0.125
1.676,-0.110
1.680,-0.095
1.684,-0.100
1.688,-0.105
1.692,-0.120
1.696,-0.135
1.700,-0.135
1.704,-0.135
1.708,-0.125
1.712,-0.115
1.716,-0.115
1.720,-0.115
1.724,-0.110
1.728,-0.105
1.732,-0.110
1.736,-0.115
1.740,-0.120
1.744,-0.120
1.748,-0.105
1.752,-0.095
1.756,-0.095
1.760,-0.095
1.764,-0.095
1.768,-0.095
1.772,-0.090
1.776,-0.085
1.780,-0.080
1.784,-0.075
1.788,-0.075
1.792,-0.070
1.796,-0.060
1.800,-0.055
1.804,-0.060
1.808,-0.055
1.812,-0.040
1.816,-0.035
1.820,-0.030
1.824,-0.025
1.828,-0.020
1.832,-0.010
1.836,0.005
1.840,0.010
1.844,0.015
1.848,0.025
1.852,0.035
1.856,0.050
1.860,0.065
1.864,0.070
1.868,0.075
1.872,0.090
1.876,0.105
1.880,0.120
1.884,0.135
1.888,0.145
1.892,0.160
1.896,0.180
1.900,0.195
1.904,0.205
1.908,0.220
1.912,0.235
1.916,0.250
1.920,0.265
1.924,0.275
1.928,0.270
1.932,0.265
1.936,0.270
1.940,0.270
1.944,0.255
1.948,0.235
1.952,0.215
1.956,0.195
1.960,0.180
1.964,0.160
1.968,0.130
1.972,0.105
1.976,0.070
1.980,0.050
1.984,0.030
1.988,0.015
1.992,0.000
1.996,-0.015
2.000,-0.005
2.004,-0.045
2.008,-0.055
2.012,-0.065
2.016,-0.075
2.020,-0.080
2.024,-0.085
2.028,-0.085
2.032,-0.085
2.036,-0.085
2.040,-0.085
2.044,-0.085
2.048,-0.085
2.052,-0.080
2.056,-0.075
2.060,-0.085
2.064,-0.095
2.068,-0.085
2.072,-0.075
2.076,-0.085
2.080,-0.095
2.084,-0.090
2.088,-0.085
2.092,-0.080
2.096,-0.075
2.100,-0.075
2.104,-0.075
2.108,-0.080
2.112,-0.085
2.116,-0.085
2.120,-0.085
2.124,-0.090
2.128,-0.095
2.132,-0.090
2.136,-0.085
2.140,-0.090
2.144,-0.095
2.148,-0.090
2.152,-0.085
2.156,-0.085
2.160,-0.085
2.164,-0.090
2.168,-0.100
2.172,-0.105
2.176,-0.100
2.180,-0.095
2.184,-0.095
2.188,-0.095
2.192,-0.095
2.196,-0.095
2.200,-0.095
2.204,-0.095
2.208,-0.100
2.212,-0.105
2.216,-0.100
2.220,-0.095
2.224,-0.095
2.228,-0.095
2.232,-0.105
2.236,-0.115
2.240,-0.105
2.244,-0.095
2.248,-0.105
2.252,-0.115
2.256,-0.110
2.260,-0.105
2.264,-0.105
2.268,-0.105
2.272,-0.100
2.276,-0.095
2.280,-0.090
2.284,-0.090
2.288,-0.100
2.292,-0.105
2.296,-0.100
2.300,-0.075
2.304,-0.050
2.308,-0.020
2.312,0.010
2.316,0.005
2.320,-0.010
2.324,-0.030
2.328,-0.050
2.332,-0.055
2.336,-0.055
2.340,-0.070
2.344,-0.085
2.348,-0.095
2.352,-0.105
2.356,-0.115
2.360,-0.125
2.364,-0.130
2.368,-0.135
2.372,-0.125
2.376,-0.115
2.380,-0.120
2.384,-0.125
2.388,-0.130
2.392,-0.135
2.396,-0.125
2.400,-0.115
2.404,-0.120
2.408,-0.125
2.412,-0.125
2.416,-0.125
2.420,-0.120
2.424,-0.120
2.428,-0.130
2.432,-0.130
2.436,-0.115
2.440,-0.105
2.444,-0.105
2.448,-0.100
2.452,-0.090
2.456,-0.125
2.460,-0.180
2.464,-0.240
2.468,-0.300
2.472,-0.235
2.476,-0.130
2.480,0.210
2.484,0.585
2.488,1.085
2.492,1.600
2.496,1.430
2.500,1.625
2.504,0.545
2.508,-0.110
2.512,-0.320
2.516,-0.510
2.520,-0.450
2.524,-0.385
2.528,-0.300
2.532,-0.215
2.536,-0.155
2.540,-0.105
2.544,-0.105
2.548,-0.105
2.552,-0.120
2.556,-0.135
2.560,-0.135
2.564,-0.135
2.568,-0.135
2.572,-0.135
2.576,-0.135
2.580,-0.135
2.584,-0.130
2.588,-0.125
2.592,-0.125
2.596,-0.125
2.600,-0.125
2.604,-0.125
2.608,-0.120
2.612,-0.120
2.616,-0.130
2.620,-0.130
2.624,-0.120
2.628,-0.115
2.632,-0.110
2.636,-0.105
2.640,-0.110
2.644,-0.110
2.648,-0.100
2.652,-0.095
2.656,-0.095
2.660,-0.095
2.664,-0.090
2.668,-0.080
2.672,-0.075
2.676,-0.080
2.680,-0.085
2.684,-0.075
2.688,-0.065
2.692,-0.055
2.696,-0.045
2.700,-0.040
2.704,-0.035
2.708,-0.025
2.712,-0.015
2.716,-0.010
2.720,-0.005
2.724,0.000
2.728,0.010
2.732,0.025
2.736,0.035
2.740,0.035
2.744,0.040
2.748,0.060
2.752,0.080
2.756,0.090
2.760,0.105
2.764,0.125
2.768,0.145
2.772,0.165
2.776,0.180
2.780,0.190
2.784,0.200
2.788,0.210
2.792,0.220
2.796,0.230
2.800,0.240
2.804,0.250
2.808,0.255
2.812,0.250
2.816,0.240
2.820,0.230
2.824,0.205
2.828,0.180
2.832,0.160
2.836,0.135
2.840,0.110
2.844,0.085
2.848,0.050
2.852,0.015
2.856,-0.010
2.860,-0.035
2.864,-0.045
2.868,-0.055
2.872,-0.075
2.876,-0.095
2.880,-0.100
2.884,-0.105
2.888,-0.115
2.892,-0.125
2.896,-0.120
2.900,-0.115
2.904,-0.115
2.908,-0.115
2.912,-0.120
2.916,-0.125
2.920,-0.130
2.924,-0.135
2.928,-0.130
2.932,-0.125
2.936,-0.125
2.940,-0.125
2.944,-0.125
2.948,-0.125
2.952,-0.130
2.956,-0.130
2.960,-0.120
2.964,-0.115
2.968,-0.110
2.972,-0.110
2.976,-0.120
2.980,-0.125
2.984,-0.130
2.988,-0.135
2.992,-0.135
2.996,-0.135
3.000,-0.135
3.004,-0.135
3.008,-0.135
3.012,-0.140
3.016,-0.145
3.020,-0.135
3.024,-0.125
3.028,-0.130
3.032,-0.135
3.036,-0.135
3.040,-0.135
3.044,-0.145
3.048,-0.155
3.052,-0.160
3.056,-0.165
3.060,-0.155
3.064,-0.145
3.068,-0.145
3.072,-0.145
3.076,-0.150
3.080,-0.155
3.084,-0.150
3.088,-0.145
3.092,-0.145
3.096,-0.145
3.100,-0.150
3.104,-0.155
3.108,-0.155
3.112,-0.155
3.116,-0.160
3.120,-0.165
3.124,-0.160
3.128,-0.155
3.132,-0.155
3.136,-0.155
3.140,-0.155
3.144,-0.155
3.148,-0.150
3.152,-0.145
3.156,-0.145
3.160,-0.145
3.164,-0.150
3.168,-0.160
3.172,-0.165
3.176,-0.165
3.180,-0.165
3.184,-0.155
3.188,-0.145
3.192,-0.150
3.196,-0.155
3.200,-0.160
3.204,-0.165
3.208,-0.160
3.212,-0.155
3.216,-0.150
3.220,-0.145
3.224,-0.155
3.228,-0.165
3.232,-0.160
3.236,-0.155
3.240,-0.165
3.244,-0.170
3.248,-0.155
3.252,-0.145
3.256,-0.150
3.260,-0.155
3.264,-0.150
3.268,-0.140
3.272,-0.125
3.276,-0.110
3.280,-0.090
3.284,-0.070
3.288,-0.045
3.292,-0.040
3.296,-0.050
3.300,-0.070
3.304,-0.090
3.308,-0.095
3.312,-0.095
3.316,-0.105
3.320,-0.120
3.324,-0.130
3.328,-0.140
3.332,-0.145
3.336,-0.145
3.340,-0.150
3.344,-0.155
3.348,-0.160
3.352,-0.165
3.356,-0.160
3.360,-0.155
3.364,-0.165
3.368,-0.175
3.372,-0.165
3.376,-0.155
3.380,-0.160
3.384,-0.165
3.388,-0.160
3.392,-0.155
3.396,-0.150
3.400,-0.145
3.404,-0.145
3.408,-0.145
3.412,-0.145
3.416,-0.145
3.420,-0.130
3.424,-0.130
3.428,-0.145
3.432,-0.200
3.436,-0.280
3.440,-0.310
3.444,-0.300
3.448,-0.170
3.452,0.020
3.456,0.410
3.460,0.880
3.464,1.275
3.468,1.645
3.472,1.245
3.476,0.670
3.480,0.160
3.484,-0.335
3.488,-0.445
3.492,-0.520
3.496,-0.450
3.500,-0.525
3.504,-0.285
3.508,-0.205
3.512,-0.165
3.516,-0.125
3.520,-0.130
3.524,-0.135
3.528,-0.145
3.532,-0.155
3.536,-0.160
3.540,-0.165
3.544,-0.165
3.548,-0.165
3.552,-0.170
3.556,-0.175
3.560,-0.165
3.564,-0.155
3.568,-0.155
3.572,-0.155
3.576,-0.155
3.580,-0.155
3.584,-0.150
3.588,-0.145
3.592,-0.145
3.596,-0.145
3.600,-0.145
3.604,-0.145
3.608,-0.145
3.612,-0.145
3.616,-0.145
3.620,-0.140
3.624,-0.130
3.628,-0.125
3.632,-0.120
3.636,-0.115
3.640,-0.115
3.644,-0.110
3.648,-0.100
3.652,-0.095
3.656,-0.090
3.660,-0.085
3.664,-0.085
3.668,-0.075
3.672,-0.065
3.676,-0.065
3.680,-0.065
3.684,-0.055
3.688,-0.045
3.692,-0.030
3.696,-0.015
3.700,-0.010
3.704,-0.005
3.708,0.010
3.712,0.025
3.716,0.035
3.720,0.045
3.724,0.055
3.728,0.070
3.732,0.085
3.736,0.095
3.740,0.100
3.744,0.115
3.748,0.145
3.752,0.170
3.756,0.180
3.760,0.190
3.764,0.205
3.768,0.220
3.772,0.235
3.776,0.245
3.780,0.250
3.784,0.245
3.788,0.230
3.792,0.210
3.796,0.190
3.800,0.165
3.804,0.135
3.808,0.110
3.812,0.090
3.816,0.060
3.820,0.030
3.824,0.010
3.828,-0.010
3.832,-0.025
3.836,-0.045
3.840,-0.060
3.844,-0.075
3.848,-0.090
3.852,-0.105
3.856,-0.110
3.860,-0.115
3.864,-0.125
3.868,-0.135
3.872,-0.130
3.876,-0.125
3.880,-0.125
3.884,-0.125
3.888,-0.130
3.892,-0.135
3.896,-0.125
3.900,-0.115
3.904,-0.115
3.908,-0.115
3.912,-0.120
3.916,-0.125
3.920,-0.125
3.924,-0.125
3.928,-0.130
3.932,-0.135
3.936,-0.130
3.940,-0.125
3.944,-0.125
3.948,-0.125
3.952,-0.130
3.956,-0.135
3.960,-0.130
3.964,-0.125
3.968,-0.125
3.972,-0.125
3.976,-0.130
3.980,-0.135
3.984,-0.135
3.988,-0.140
3.992,-0.150
3.996,-0.145
4.000,-0.155
4.004,-0.130
4.008,-0.135
4.012,-0.140
4.016,-0.145
4.020,-0.140
4.024,-0.135
4.028,-0.135
4.032,-0.135
4.036,-0.140
4.040,-0.145
4.044,-0.145
4.048,-0.145
4.052,-0.155
4.056,-0.165
4.060,-0.155
4.064,-0.145
4.068,-0.145
4.072,-0.145
4.076,-0.145
4.080,-0.145
4.084,-0.145
4.088,-0.145
4.092,-0.140
4.096,-0.135
4.100,-0.140
4.104,-0.145
4.108,-0.145
4.112,-0.145
4.116,-0.150
4.120,-0.155
4.124,-0.150
4.128,-0.145
4.132,-0.145
4.136,-0.145
4.140,-0.145
4.144,-0.145
4.148,-0.140
4.152,-0.135
4.156,-0.135
4.160,-0.135
4.164,-0.140
4.168,-0.150
4.172,-0.155
4.176,-0.160
4.180,-0.165
4.184,-0.150
4.188,-0.135
4.192,-0.140
4.196,-0.145
4.200,-0.145
4.204,-0.145
4.208,-0.135
4.212,-0.125
4.216,-0.125
4.220,-0.125
4.224,-0.130
4.228,-0.135
4.232,-0.140
4.236,-0.145
4.240,-0.140
4.244,-0.135
4.248,-0.135
4.252,-0.135
4.256,-0.135
4.260,-0.135
4.264,-0.135
4.268,-0.135
4.272,-0.130
4.276,-0.125
4.280,-0.125
4.284,-0.125
4.288,-0.130
4.292,-0.135
4.296,-0.135
4.300,-0.135
4.304,-0.140
4.308,-0.145
4.312,-0.140
4.316,-0.135
4.320,-0.130
4.324,-0.125
4.328,-0.130
4.332,-0.130
4.336,-0.115
4.340,-0.115
4.344,-0.115
4.348,-0.120
4.352,-0.125
4.356,-0.125
4.360,-0.125
4.364,-0.135
4.368,-0.145
4.372,-0.135
4.376,-0.125
4.380,-0.125
4.384,-0.125
4.388,-0.125
4.392,-0.125
4.396,-0.120
4.400,-0.115
4.404,-0.115
4.408,-0.115
4.412,-0.120
4.416,-0.125
4.420,-0.125
4.424,-0.125
4.428,-0.125
4.432,-0.120
4.436,-0.110
4.440,-0.110
4.444,-0.120
4.448,-0.120
4.452,-0.110
4.456,-0.085
4.460,-0.055
4.464,-0.025
4.468,0.005
4.472,0.015
4.476,0.020
4.480,0.005
4.484,-0.020
4.488,-0.035
4.492,-0.050
4.496,-0.065
4.500,-0.055
4.504,-0.095
4.508,-0.105
4.512,-0.115
4.516,-0.125
4.520,-0.120
4.524,-0.115
4.528,-0.120
4.532,-0.125
4.536,-0.130
4.540,-0.135
4.544,-0.130
4.548,-0.125
4.552,-0.125
4.556,-0.125
4.560,-0.125
4.564,-0.125
4.568,-0.125
4.572,-0.125
4.576,-0.120
4.580,-0.115
4.584,-0.110
4.588,-0.100
4.592,-0.090
4.596,-0.085
4.600,-0.090
4.604,-0.140
4.608,-0.215
4.612,-0.260
4.616,-0.285
4.620,-0.205
4.624,-0.070
4.628,0.250
4.632,0.635
4.636,1.085
4.640,1.550
4.644,1.430
4.648,1.195
4.652,0.630
4.656,0.025
4.660,-0.250
4.664,-0.500
4.668,-0.470
4.672,-0.435
4.676,-0.365
4.680,-0.290
4.684,-0.205
4.688,-0.125
4.692,-0.110
4.696,-0.095
4.700,-0.110
4.704,-0.125
4.708,-0.125
4.712,-0.125
4.716,-0.125
4.720,-0.125
4.724,-0.130
4.728,-0.135
4.732,-0.135
4.736,-0.135
4.740,-0.130
4.744,-0.125
4.748,-0.130
4.752,-0.135
4.756,-0.130
4.760,-0.125
4.764,-0.125
4.768,-0.125
4.772,-0.125
4.776,-0.125
4.780,-0.120
4.784,-0.115
4.788,-0.115
4.792,-0.115
4.796,-0.115
4.800,-0.115
4.804,-0.115
4.808,-0.115
4.812,-0.115
4.816,-0.110
4.820,-0.100
4.824,-0.095
4.828,-0.090
4.832,-0.085
4.836,-0.085
4.840,-0.070
4.844,-0.055
4.848,-0.055
4.852,-0.055
4.856,-0.050
4.860,-0.045
4.864,-0.040
4.868,-0.035
4.872,-0.035
4.876,-0.030
4.880,-0.010
4.884,0.005
4.888,0.020
4.892,0.035
4.896,0.040
4.900,0.050
4.904,0.070
4.908,0.085
4.912,0.095
4.916,0.110
4.920,0.125
4.924,0.140
4.928,0.155
4.932,0.170
4.936,0.180
4.940,0.200
4.944,0.225
4.948,0.240
4.952,0.250
4.956,0.255
4.960,0.260
4.964,0.265
4.968,0.265
4.972,0.255
4.976,0.240
4.980,0.215
4.984,0.190
4.988,0.165
4.992,0.140
4.996,0.105
5.000,0.135
5.004,0.045
5.008,0.025
5.012,0.000
5.016,-0.025
5.020,-0.040
5.024,-0.055
5.028,-0.065
5.032,-0.075
5.036,-0.080
5.040,-0.085
5.044,-0.095
5.048,-0.105
5.052,-0.100
5.056,-0.095
5.060,-0.105
5.064,-0.115
5.068,-0.110
5.072,-0.105
5.076,-0.105
5.080,-0.105
5.084,-0.105
5.088,-0.105
5.092,-0.105
5.096,-0.105
5.100,-0.105
5.104,-0.105
5.108,-0.105
5.112,-0.105
5.116,-0.105
5.120,-0.105
5.124,-0.110
5.128,-0.115
5.132,-0.110
5.136,-0.105
5.140,-0.105
5.144,-0.110
5.148,-0.120
5.152,-0.125
5.156,-0.120
5.160,-0.115
5.164,-0.115
5.168,-0.120
5.172,-0.125
5.176,-0.120
5.180,-0.115
5.184,-0.125
5.188,-0.135
5.192,-0.130
5.196,-0.125
5.200,-0.125
5.204,-0.125
5.208,-0.130
5.212,-0.135
5.216,-0.130
5.220,-0.125
5.224,-0.135
5.228,-0.145
5.232,-0.145
5.236,-0.145
5.240,-0.155
5.244,-0.160
5.248,-0.140
5.252,-0.130
5.256,-0.140
5.260,-0.145
5.264,-0.140
5.268,-0.135
5.272,-0.135
5.276,-0.135
5.280,-0.135
5.284,-0.135
5.288,-0.140
5.292,-0.145
5.296,-0.140
5.300,-0.140
5.304,-0.150
5.308,-0.155
5.312,-0.150
5.316,-0.145
5.320,-0.145
5.324,-0.145
5.328,-0.150
5.332,-0.150
5.336,-0.135
5.340,-0.140
5.344,-0.145
5.348,-0.145
5.352,-0.145
5.356,-0.145
5.360,-0.145
5.364,-0.150
5.368,-0.155
5.372,-0.150
5.376,-0.145
5.380,-0.145
5.384,-0.145
5.388,-0.150
5.392,-0.155
5.396,-0.145
5.400,-0.135
5.404,-0.140
5.408,-0.145
5.412,-0.145
5.416,-0.145
5.420,-0.140
5.424,-0.135
5.428,-0.140
5.432,-0.145
5.436,-0.140
5.440,-0.135
5.444,-0.140
5.448,-0.145
5.452,-0.145
5.456,-0.140
5.460,-0.130
5.464,-0.125
5.468,-0.130
5.472,-0.135
5.476,-0.140
5.480,-0.145
5.484,-0.140
5.488,-0.135
5.492,-0.140
5.496,-0.145
5.500,-0.145
5.504,-0.135
5.508,-0.135
5.512,-0.135
5.516,-0.135
5.520,-0.130
5.524,-0.125
5.528,-0.125
5.532,-0.125
5.536,-0.125
5.540,-0.125
5.544,-0.130
5.548,-0.135
5.552,-0.140
5.556,-0.145
5.560,-0.135
5.564,-0.125
5.568,-0.130
5.572,-0.135
5.576,-0.130
5.580,-0.125
5.584,-0.110
5.588,-0.105
5.592,-0.110
5.596,-0.120
5.600,-0.130
5.604,-0.120
5.608,-0.095
5.612,-0.075
5.616,-0.055
5.620,-0.020
5.624,0.015
5.628,0.010
5.632,-0.010
5.636,-0.025
5.640,-0.040
5.644,-0.055
5.648,-0.070
5.652,-0.085
5.656,-0.100
5.660,-0.105
5.664,-0.110
5.668,-0.120
5.672,-0.125
5.676,-0.140
5.680,-0.155
5.684,-0.150
5.688,-0.145
5.692,-0.145
5.696,-0.145
5.700,-0.150
5.704,-0.155
5.708,-0.150
5.712,-0.145
5.716,-0.140
5.720,-0.135
5.724,-0.135
5.728,-0.135
5.732,-0.130
5.736,-0.125
5.740,-0.130
5.744,-0.130
5.748,-0.110
5.752,-0.130
5.756,-0.210
5.760,-0.270
5.764,-0.320
5.768,-0.265
5.772,-0.125
5.776,0.165
5.780,0.545
5.784,1.000
5.788,1.490
5.792,1.460
5.796,1.235
5.800,0.675
5.804,0.020
5.808,-0.265
5.812,-0.475
5.816,-0.480
5.820,-0.450
5.824,-0.365
5.828,-0.280
5.832,-0.210
5.836,-0.135
5.840,-0.125
5.844,-0.115
5.848,-0.130
5.852,-0.145
5.856,-0.150
5.860,-0.155
5.864,-0.160
5.868,-0.165
5.872,-0.155
5.876,-0.145
5.880,-0.150
5.884,-0.155
5.888,-0.155
5.892,-0.155
5.896,-0.150
5.900,-0.145
5.904,-0.145
5.908,-0.145
5.912,-0.140
5.916,-0.135
5.920,-0.135
5.924,-0.135
5.928,-0.135
5.932,-0.130
5.936,-0.120
5.940,-0.115
5.944,-0.120
5.948,-0.125
5.952,-0.120
5.956,-0.115
5.960,-0.110
5.964,-0.105
5.968,-0.100
5.972,-0.095
5.976,-0.095
5.980,-0.090
5.984,-0.080
5.988,-0.075
5.992,-0.075
5.996,-0.070
6.000,-0.075
6.004,-0.045
6.008,-0.035
6.012,-0.035
6.016,-0.035
6.020,-0.020
6.024,-0.005
6.028,0.010
6.032,0.025
6.036,0.030
6.040,0.035
6.044,0.050
6.048,0.065
6.052,0.075
6.056,0.090
6.060,0.110
6.064,0.130
6.068,0.145
6.072,0.160
6.076,0.175
6.080,0.190
6.084,0.215
6.088,0.230
6.092,0.245
6.096,0.255
6.100,0.255
6.104,0.255
6.108,0.260
6.112,0.255
6.116,0.240
6.120,0.225
6.124,0.210
6.128,0.185
6.132,0.155
6.136,0.125
6.140,0.090
6.144,0.075
6.148,0.060
6.152,0.035
6.156,0.010
6.160,-0.015
6.164,-0.040
6.168,-0.065
6.172,-0.085
6.176,-0.095
6.180,-0.105
6.184,-0.105
6.188,-0.105
6.192,-0.110
6.196,-0.115
6.200,-0.120
6.204,-0.125
6.208,-0.120
6.212,-0.115
6.216,-0.120
6.220,-0.125
6.224,-0.130
6.228,-0.135
6.232,-0.140
6.236,-0.145
6.240,-0.150
6.244,-0.150
6.248,-0.130
6.252,-0.115
6.256,-0.120
6.260,-0.125
6.264,-0.130
6.268,-0.135
6.272,-0.135
6.276,-0.130
6.280,-0.120
6.284,-0.115
6.288,-0.115
6.292,-0.120
6.296,-0.130
6.300,-0.135
6.304,-0.135
6.308,-0.140
6.312,-0.150
6.316,-0.145
6.320,-0.130
6.324,-0.125
6.328,-0.130
6.332,-0.140
6.336,-0.155
6.340,-0.140
6.344,-0.125
6.348,-0.125
6.352,-0.125
6.356,-0.125
6.360,-0.125
6.364,-0.130
6.368,-0.135
6.372,-0.145
6.376,-0.155
6.380,-0.145
6.384,-0.135
6.388,-0.135
6.392,-0.135
6.396,-0.135
6.400,-0.135
6.404,-0.130
6.408,-0.125
6.412,-0.125
6.416,-0.125
6.420,-0.130
6.424,-0.135
6.428,-0.135
6.432,-0.140
6.436,-0.150
6.440,-0.150
6.444,-0.140
6.448,-0.135
6.452,-0.135
6.456,-0.135
6.460,-0.130
6.464,-0.125
6.468,-0.120
6.472,-0.115
6.476,-0.115
6.480,-0.115
6.484,-0.120
6.488,-0.125
6.492,-0.120
6.496,-0.115
6.500,-0.115
6.504,-0.120
6.508,-0.115
6.512,-0.100
6.516,-0.085
6.520,-0.065
6.524,-0.040
6.528,-0.005
6.532,0.025
6.536,0.020
6.540,0.010
6.544,-0.020
6.548,-0.045
6.552,-0.045
6.556,-0.055
6.560,-0.085
6.564,-0.105
6.568,-0.105
6.572,-0.105
6.576,-0.115
6.580,-0.125
6.584,-0.125
6.588,-0.125
6.592,-0.120
6.596,-0.115
6.600,-0.120
6.604,-0.125
6.608,-0.130
6.612,-0.135
6.616,-0.130
6.620,-0.125
6.624,-0.125
6.628,-0.125
6.632,-0.120
6.636,-0.115
6.640,-0.120
6.644,-0.120
6.648,-0.110
6.652,-0.100
6.656,-0.090
6.660,-0.085
6.664,-0.085
6.668,-0.100
6.672,-0.115
6.676,-0.235
6.680,-0.345
6.684,-0.280
6.688,-0.195
6.692,0.065
6.696,0.375
6.700,0.905
6.704,1.375
6.708,1.615
6.712,1.600
6.716,0.860
6.720,0.230
6.724,-0.150
6.728,-0.400
6.732,-0.425
6.736,-0.420
6.740,-0.345
6.744,-0.270
6.748,-0.180
6.752,-0.125
6.756,-0.100
6.760,-0.085
6.764,-0.085
6.768,-0.090
6.772,-0.100
6.776,-0.105
6.780,-0.100
6.784,-0.095
6.788,-0.095
6.792,-0.095
6.796,-0.095
6.800,-0.095
6.804,-0.100
6.808,-0.105
6.812,-0.100
6.816,-0.095
6.820,-0.090
6.824,-0.085
6.828,-0.090
6.832,-0.095
6.836,-0.085
6.840,-0.085
6.844,-0.085
6.848,-0.080
6.852,-0.075
6.856,-0.070
6.860,-0.065
6.864,-0.065
6.868,-0.065
6.872,-0.055
6.876,-0.045
6.880,-0.045
6.884,-0.045
6.888,-0.045
6.892,-0.040
6.896,-0.025
6.900,-0.015
6.904,-0.010
6.908,-0.005
6.912,0.000
6.916,0.005
6.920,0.010
6.924,0.015
6.928,0.015
6.932,0.025
6.936,0.045
6.940,0.060
6.944,0.070
6.948,0.080
6.952,0.090
6.956,0.105
6.960,0.120
6.964,0.130
6.968,0.140
6.972,0.150
6.976,0.160
6.980,0.175
6.984,0.190
6.988,0.205
6.992,0.220
6.996,0.240
7.000,0.225
7.004,0.280
7.008,0.295
7.012,0.300
7.016,0.305
7.020,0.305
7.024,0.305
7.028,0.310
7.032,0.315
7.036,0.295
7.040,0.270
7.044,0.240
7.048,0.215
7.052,0.200
7.056,0.175
7.060,0.135
7.064,0.100
7.068,0.085
7.072,0.065
7.076,0.040
7.080,0.020
7.084,0.005
7.088,-0.010
7.092,-0.020
7.096,-0.030
7.100,-0.040
7.104,-0.045
7.108,-0.050
7.112,-0.055
7.116,-0.055
7.120,-0.060
7.124,-0.070
7.128,-0.075
7.132,-0.070
7.136,-0.065
7.140,-0.065
7.144,-0.065
7.148,-0.070
7.152,-0.070
7.156,-0.060
7.160,-0.055
7.164,-0.055
7.168,-0.060
7.172,-0.065
7.176,-0.060
7.180,-0.055
7.184,-0.060
7.188,-0.065
7.192,-0.065
7.196,-0.065
7.200,-0.065
7.204,-0.065
7.208,-0.065
7.212,-0.065
7.216,-0.060
7.220,-0.055
7.224,-0.065
7.228,-0.075
7.232,-0.075
7.236,-0.075
7.240,-0.070
7.244,-0.065
7.248,-0.075
7.252,-0.085
7.256,-0.080
7.260,-0.075
7.264,-0.080
7.268,-0.085
7.272,-0.080
7.276,-0.075
7.280,-0.070
7.284,-0.070
7.288,-0.080
7.292,-0.085
7.296,-0.090
7.300,-0.095
7.304,-0.095
7.308,-0.090
7.312,-0.080
7.316,-0.075
7.320,-0.075
7.324,-0.075
7.328,-0.080
7.332,-0.085
7.336,-0.075
7.340,-0.075
7.344,-0.075
7.348,-0.075
7.352,-0.075
7.356,-0.080
7.360,-0.085
7.364,-0.095
7.368,-0.105
7.372,-0.085
7.376,-0.060
7.380,-0.040
7.384,-0.020
7.388,0.005
7.392,0.025
7.396,0.030
7.400,0.025
7.404,-0.005
7.408,-0.025
7.412,-0.035
7.416,-0.050
7.420,-0.065
7.424,-0.080
7.428,-0.095
7.432,-0.105
7.436,-0.100
7.440,-0.095
7.444,-0.095
7.448,-0.095
7.452,-0.095
7.456,-0.095
7.460,-0.095
7.464,-0.095
7.468,-0.095
7.472,-0.095
7.476,-0.100
7.480,-0.105
7.484,-0.105
7.488,-0.105
7.492,-0.110
7.496,-0.110
7.500,-0.115
7.504,-0.095
7.508,-0.095
7.512,-0.090
7.516,-0.085
7.520,-0.075
7.524,-0.065
7.528,-0.060
7.532,-0.060
7.536,-0.095
7.540,-0.145
7.544,-0.230
7.548,-0.280
7.552,-0.220
7.556,-0.090
7.560,0.185
7.564,0.540
7.568,1.040
7.572,1.395
7.576,1.545
7.580,1.310
7.584,0.635
7.588,0.115
7.592,-0.260
7.596,-0.425
7.600,-0.425
7.604,-0.370
7.608,-0.270
7.612,-0.195
7.616,-0.125
7.620,-0.095
7.624,-0.080
7.628,-0.080
7.632,-0.090
7.636,-0.095
7.640,-0.100
7.644,-0.105
7.648,-0.100
7.652,-0.095
7.656,-0.100
7.660,-0.105
7.664,-0.105
7.668,-0.100
7.672,-0.095
7.676,-0.105
7.680,-0.115
7.684,-0.100
7.688,-0.085
7.692,-0.090
7.696,-0.095
7.700,-0.090
7.704,-0.085
7.708,-0.080
7.712,-0.075
7.716,-0.075
7.720,-0.075
7.724,-0.070
7.728,-0.065
7.732,-0.060
7.736,-0.055
7.740,-0.060
7.744,-0.065
7.748,-0.055
7.752,-0.045
7.756,-0.040
7.760,-0.035
7.764,-0.030
7.768,-0.020
7.772,-0.010
7.776,-0.005
7.780,-0.005
7.784,0.000
7.788,0.010
7.792,0.025
7.796,0.040
7.800,0.045
7.804,0.045
7.808,0.055
7.812,0.070
7.816,0.085
7.820,0.100
7.824,0.110
7.828,0.120
7.832,0.140
7.836,0.165
7.840,0.175
7.844,0.185
7.848,0.200
7.852,0.215
7.856,0.230
7.860,0.245
7.864,0.255
7.868,0.265
7.872,0.280
7.876,0.295
7.880,0.300
7.884,0.305
7.888,0.295
7.892,0.285
7.896,0.275
7.900,0.255
7.904,0.230
7.908,0.200
7.912,0.165
7.916,0.135
7.920,0.110
7.924,0.080
7.928,0.045
7.932,0.020
7.936,0.010
7.940,-0.005
7.944,-0.025
7.948,-0.040
7.952,-0.050
7.956,-0.055
7.960,-0.060
7.964,-0.065
7.968,-0.065
7.972,-0.070
7.976,-0.080
7.980,-0.085
7.984,-0.085
7.988,-0.090
7.992,-0.100
7.996,-0.100
8.000,-0.105
8.004,-0.085
8.008,-0.085
8.012,-0.085
8.016,-0.085
8.020,-0.080
8.024,-0.075
8.028,-0.075
8.032,-0.075
8.036,-0.080
8.040,-0.085
8.044,-0.085
8.048,-0.085
8.052,-0.085
8.056,-0.085
8.060,-0.090
8.064,-0.095
8.068,-0.090
8.072,-0.085
8.076,-0.090
8.080,-0.095
8.084,-0.095
8.088,-0.095
8.092,-0.090
8.096,-0.090
8.100,-0.100
8.104,-0.105
8.108,-0.110
8.112,-0.110
8.116,-0.100
8.120,-0.095
8.124,-0.100
8.128,-0.105
8.132,-0.105
8.136,-0.105
8.140,-0.110
8.144,-0.115
8.148,-0.110
8.152,-0.105
8.156,-0.100
8.160,-0.095
8.164,-0.100
8.168,-0.110
8.172,-0.115
8.176,-0.105
8.180,-0.095
8.184,-0.100
8.188,-0.105
8.192,-0.105
8.196,-0.105
8.200,-0.110
8.204,-0.115
8.208,-0.110
8.212,-0.105
8.216,-0.105
8.220,-0.105
8.224,-0.105
8.228,-0.105
8.232,-0.105
8.236,-0.105
8.240,-0.100
8.244,-0.095
8.248,-0.095
8.252,-0.095
8.256,-0.095
8.260,-0.095
8.264,-0.095
8.268,-0.090
8.272,-0.075
8.276,-0.045
8.280,-0.010
8.284,0.010
8.288,0.020
8.292,0.005
8.296,-0.025
8.300,-0.035
8.304,-0.040
8.308,-0.055
8.312,-0.070
8.316,-0.080
8.320,-0.090
8.324,-0.100
8.328,-0.110
8.332,-0.115
8.336,-0.115
8.340,-0.115
8.344,-0.115
8.348,-0.115
8.352,-0.115
8.356,-0.120
8.360,-0.125
8.364,-0.130
8.368,-0.135
8.372,-0.125
8.376,-0.115
8.380,-0.120
8.384,-0.125
8.388,-0.125
8.392,-0.125
8.396,-0.115
8.400,-0.105
8.404,-0.105
8.408,-0.105
8.412,-0.100
8.416,-0.090
8.420,-0.075
8.424,-0.105
8.428,-0.180
8.432,-0.250
8.436,-0.310
8.440,-0.275
8.444,-0.170
8.448,0.080
8.452,0.400
8.456,0.870
8.460,1.400
8.464,1.495
8.468,1.455
8.472,0.905
8.476,0.240
8.480,-0.120
8.484,-0.435
8.488,-0.465
8.492,-0.460
8.496,-0.365
8.500,-0.455
8.504,-0.195
8.508,-0.125
8.512,-0.110
8.516,-0.095
8.520,-0.100
8.524,-0.105
8.528,-0.110
8.532,-0.115
8.536,-0.120
8.540,-0.125
8.544,-0.125
8.548,-0.125
8.552,-0.125
8.556,-0.125
8.560,-0.120
8.564,-0.115
8.568,-0.115
8.572,-0.115
8.576,-0.115
8.580,-0.115
8.584,-0.110
8.588,-0.105
8.592,-0.105
8.596,-0.105
8.600,-0.105
8.604,-0.105
8.608,-0.105
8.612,-0.105
8.616,-0.100
8.620,-0.095
8.624,-0.090
8.628,-0.085
8.632,-0.085
8.636,-0.085
8.640,-0.080
8.644,-0.070
8.648,-0.060
8.652,-0.050
8.656,-0.040
8.660,-0.035
8.664,-0.035
8.668,-0.030
8.672,-0.025
8.676,-0.025
8.680,-0.025
8.684,-0.005
8.688,0.015
8.692,0.020
8.696,0.025
8.700,0.035
8.704,0.045
8.708,0.060
8.712,0.075
8.716,0.090
8.720,0.105
8.724,0.110
8.728,0.120
8.732,0.135
8.736,0.145
8.740,0.155
8.744,0.175
8.748,0.200
8.752,0.220
8.756,0.235
8.760,0.250
8.764,0.260
8.768,0.270
8.772,0.280
8.776,0.285
8.780,0.280
8.784,0.265
8.788,0.250
8.792,0.230
8.796,0.205
8.800,0.180
8.804,0.160
8.808,0.130
8.812,0.100
8.816,0.075
8.820,0.050
8.824,0.025
8.828,0.000
8.832,-0.015
8.836,-0.035
8.840,-0.045
8.844,-0.055
8.848,-0.060
8.852,-0.065
8.856,-0.080
8.860,-0.095
8.864,-0.095
8.868,-0.095
8.872,-0.095
8.876,-0.095
8.880,-0.095
8.884,-0.095
8.888,-0.095
8.892,-0.095
8.896,-0.095
8.900,-0.095
8.904,-0.090
8.908,-0.085
8.912,-0.090
8.916,-0.095
8.920,-0.095
8.924,-0.095
8.928,-0.095
8.932,-0.095
8.936,-0.095
8.940,-0.095
8.944,-0.095
8.948,-0.095
8.952,-0.095
8.956,-0.095
8.960,-0.095
8.964,-0.095
8.968,-0.090
8.972,-0.085
8.976,-0.090
8.980,-0.100
8.984,-0.110
8.988,-0.110
8.992,-0.100
8.996,-0.100
9.000,-0.095
9.004,-0.115
9.008,-0.115
9.012,-0.115
9.016,-0.115
9.020,-0.110
9.024,-0.105
9.028,-0.105
9.032,-0.105
9.036,-0.105
9.040,-0.105
9.044,-0.115
9.048,-0.125
9.052,-0.115
9.056,-0.105
9.060,-0.115
9.064,-0.125
9.068,-0.120
9.072,-0.115
9.076,-0.125
9.080,-0.135
9.084,-0.130
9.088,-0.125
9.092,-0.120
9.096,-0.115
9.100,-0.120
9.104,-0.125
9.108,-0.125
9.112,-0.125
9.116,-0.120
9.120,-0.120
9.124,-0.130
9.128,-0.135
9.132,-0.130
9.136,-0.125
9.140,-0.125
9.144,-0.125
9.148,-0.125
9.152,-0.125
9.156,-0.120
9.160,-0.115
9.164,-0.120
9.168,-0.120
9.172,-0.115
9.176,-0.110
9.180,-0.105
9.184,-0.115
9.188,-0.125
9.192,-0.125
9.196,-0.125
9.200,-0.125
9.204,-0.125
9.208,-0.115
9.212,-0.105
9.216,-0.105
9.220,-0.105
9.224,-0.110
9.228,-0.115
9.232,-0.120
9.236,-0.125
9.240,-0.115
9.244,-0.105
9.248,-0.105
9.252,-0.105
9.256,-0.105
9.260,-0.105
9.264,-0.105
9.268,-0.105
9.272,-0.105
9.276,-0.100
9.280,-0.080
9.284,-0.075
9.288,-0.070
9.292,-0.050
9.296,-0.025
9.300,0.000
9.304,0.020
9.308,0.005
9.312,-0.020
9.316,-0.035
9.320,-0.050
9.324,-0.065
9.328,-0.080
9.332,-0.085
9.336,-0.085
9.340,-0.095
9.344,-0.105
9.348,-0.110
9.352,-0.115
9.356,-0.120
9.360,-0.125
9.364,-0.135
9.368,-0.145
9.372,-0.135
9.376,-0.125
9.380,-0.125
9.384,-0.125
9.388,-0.125
9.392,-0.125
9.396,-0.120
9.400,-0.115
9.404,-0.115
9.408,-0.115
9.412,-0.110
9.416,-0.105
9.420,-0.105
9.424,-0.100
9.428,-0.090
9.432,-0.105
9.436,-0.140
9.440,-0.205
9.444,-0.295
9.448,-0.280
9.452,-0.210
9.456,0.020
9.460,0.315
9.464,0.750
9.468,1.230
9.472,1.440
9.476,1.580
9.480,1.015
9.484,0.320
9.488,-0.075
9.492,-0.445
9.496,-0.465
9.500,-0.465
9.504,-0.390
9.508,-0.305
9.512,-0.220
9.516,-0.145
9.520,-0.115
9.524,-0.085
9.528,-0.095
9.532,-0.105
9.536,-0.115
9.540,-0.125
9.544,-0.130
9.548,-0.135
9.552,-0.140
9.556,-0.145
9.560,-0.135
9.564,-0.125
9.568,-0.130
9.572,-0.135
9.576,-0.135
9.580,-0.130
9.584,-0.115
9.588,-0.105
9.592,-0.110
9.596,-0.115
9.600,-0.115
9.604,-0.115
9.608,-0.115
9.612,-0.115
9.616,-0.110
9.620,-0.105
9.624,-0.105
9.628,-0.105
9.632,-0.100
9.636,-0.095
9.640,-0.095
9.644,-0.090
9.648,-0.080
9.652,-0.075
9.656,-0.070
9.660,-0.065
9.664,-0.065
9.668,-0.060
9.672,-0.055
9.676,-0.040
9.680,-0.025
9.684,-0.030
9.688,-0.035
9.692,-0.025
9.696,-0.015
9.700,-0.010
9.704,-0.005
9.708,0.005
9.712,0.015
9.716,0.030
9.720,0.045
9.724,0.050
9.728,0.060
9.732,0.075
9.736,0.090
9.740,0.110
9.744,0.125
9.748,0.130
9.752,0.145
9.756,0.165
9.760,0.180
9.764,0.190
9.768,0.200
9.772,0.215
9.776,0.240
9.780,0.265
9.784,0.275
9.788,0.270
9.792,0.265
9.796,0.260
9.800,0.255
9.804,0.250
9.808,0.220
9.812,0.190
9.816,0.165
9.820,0.140
9.824,0.105
9.828,0.070
9.832,0.045
9.836,0.015
9.840,0.000
9.844,-0.015
9.848,-0.035
9.852,-0.055
9.856,-0.070
9.860,-0.085
9.864,-0.085
9.868,-0.085
9.872,-0.100
9.876,-0.115
9.880,-0.110
9.884,-0.105
9.888,-0.115
9.892,-0.125
9.896,-0.120
9.900,-0.115
9.904,-0.105
9.908,-0.095
9.912,-0.100
9.916,-0.105
9.920,-0.110
9.924,-0.115
9.928,-0.110
9.932,-0.105
9.936,-0.110
9.940,-0.115
9.944,-0.110
9.948,-0.105
9.952,-0.105
9.956,-0.105
9.960,-0.105
9.964,-0.105
9.968,-0.105
9.972,-0.105
9.976,-0.110
9.980,-0.115
9.984,-0.115
9.988,-0.120
9.992,-0.130
9.996,-0.135
