0.000,-0.125
0.004,-0.140
0.008,-0.145
0.012,-0.140
0.016,-0.135
0.020,-0.140
0.024,-0.145
0.028,-0.140
0.032,-0.135
0.036,-0.140
0.040,-0.145
0.044,-0.140
0.048,-0.135
0.052,-0.130
0.056,-0.125
0.060,-0.130
0.064,-0.135
0.068,-0.140
0.072,-0.145
0.076,-0.140
0.080,-0.135
0.084,-0.150
0.088,-0.150
0.092,-0.135
0.096,-0.125
0.100,-0.130
0.104,-0.135
0.108,-0.130
0.112,-0.125
0.116,-0.120
0.120,-0.115
0.124,-0.120
0.128,-0.125
0.132,-0.125
0.136,-0.125
0.140,-0.125
0.144,-0.125
0.148,-0.130
0.152,-0.135
0.156,-0.135
0.160,-0.135
0.164,-0.130
0.168,-0.125
0.172,-0.125
0.176,-0.110
0.180,-0.095
0.184,-0.100
0.188,-0.105
0.192,-0.080
0.196,-0.055
0.200,-0.055
0.204,-0.055
0.208,-0.050
0.212,-0.040
0.216,-0.010
0.220,0.020
0.224,0.040
0.228,0.055
0.232,0.060
0.236,0.055
0.240,0.025
0.244,0.000
0.248,-0.020
0.252,-0.030
0.256,-0.020
0.260,-0.025
0.264,-0.050
0.268,-0.075
0.272,-0.095
0.276,-0.100
0.280,-0.090
0.284,-0.095
0.288,-0.115
0.292,-0.125
0.296,-0.125
0.300,-0.125
0.304,-0.120
0.308,-0.115
0.312,-0.110
0.316,-0.105
0.320,-0.100
0.324,-0.125
0.328,-0.160
0.332,-0.095
0.336,-0.015
0.340,0.270
0.344,0.555
0.348,0.885
0.352,1.245
0.356,1.815
0.360,2.275
0.364,2.115
0.368,1.800
0.372,0.865
0.376,0.055
0.380,-0.400
0.384,-0.720
0.388,-0.690
0.392,-0.640
0.396,-0.565
0.400,-0.480
0.404,-0.390
0.408,-0.315
0.412,-0.270
0.416,-0.235
0.420,-0.210
0.424,-0.190
0.428,-0.175
0.432,-0.170
0.436,-0.180
0.440,-0.185
0.444,-0.180
0.448,-0.175
0.452,-0.175
0.456,-0.175
0.460,-0.175
0.464,-0.170
0.468,-0.160
0.472,-0.155
0.476,-0.155
0.480,-0.155
0.484,-0.150
0.488,-0.145
0.492,-0.140
0.496,-0.135
0.500,-0.135
0.504,-0.150
0.508,-0.155
0.512,-0.140
0.516,-0.125
0.520,-0.135
0.524,-0.145
0.528,-0.135
0.532,-0.125
0.536,-0.125
0.540,-0.125
0.544,-0.110
0.548,-0.095
0.552,-0.085
0.556,-0.075
0.560,-0.075
0.564,-0.075
0.568,-0.080
0.572,-0.080
0.576,-0.060
0.580,-0.045
0.584,-0.045
0.588,-0.035
0.592,-0.015
0.596,0.000
0.600,0.010
0.604,0.025
0.608,0.045
0.612,0.065
0.616,0.085
0.620,0.095
0.624,0.095
0.628,0.095
0.632,0.100
0.636,0.115
0.640,0.130
0.644,0.135
0.648,0.135
0.652,0.135
0.656,0.135
0.660,0.125
0.664,0.110
0.668,0.090
0.672,0.075
0.676,0.070
0.680,0.065
0.684,0.030
0.688,-0.005
0.692,-0.030
0.696,-0.055
0.700,-0.065
0.704,-0.075
0.708,-0.095
0.712,-0.115
0.716,-0.125
0.720,-0.135
0.724,-0.135
0.728,-0.135
0.732,-0.140
0.736,-0.145
0.740,-0.140
0.744,-0.135
0.748,-0.145
0.752,-0.155
0.756,-0.160
0.760,-0.165
0.764,-0.160
0.768,-0.160
0.772,-0.170
0.776,-0.170
0.780,-0.160
0.784,-0.155
0.788,-0.160
0.792,-0.165
0.796,-0.160
0.800,-0.155
0.804,-0.155
0.808,-0.155
0.812,-0.155
0.816,-0.160
0.820,-0.170
0.824,-0.165
0.828,-0.150
0.832,-0.145
0.836,-0.145
0.840,-0.140
0.844,-0.135
0.848,-0.135
0.852,-0.135
0.856,-0.125
0.860,-0.115
0.864,-0.125
0.868,-0.135
0.872,-0.130
0.876,-0.125
0.880,-0.130
0.884,-0.135
0.888,-0.130
0.892,-0.130
0.896,-0.145
0.900,-0.155
0.904,-0.150
0.908,-0.145
0.912,-0.145
0.916,-0.145
0.920,-0.140
0.924,-0.135
0.928,-0.135
0.932,-0.140
0.936,-0.150
0.940,-0.155
0.944,-0.155
0.948,-0.150
0.952,-0.140
0.956,-0.135
0.960,-0.140
0.964,-0.145
0.968,-0.145
0.972,-0.145
0.976,-0.150
0.980,-0.160
0.984,-0.170
0.988,-0.160
0.992,-0.140
0.996,-0.135
1.000,-0.135
1.004,-0.145
1.008,-0.145
1.012,-0.155
1.016,-0.165
1.020,-0.160
1.024,-0.155
1.028,-0.145
1.032,-0.135
1.036,-0.140
1.040,-0.145
1.044,-0.140
1.048,-0.135
1.052,-0.135
1.056,-0.135
1.060,-0.140
1.064,-0.145
1.068,-0.150
1.072,-0.150
1.076,-0.135
1.080,-0.125
1.084,-0.140
1.088,-0.140
1.092,-0.130
1.096,-0.125
1.100,-0.125
1.104,-0.125
1.108,-0.125
1.112,-0.115
1.116,-0.100
1.120,-0.090
1.124,-0.080
1.128,-0.075
1.132,-0.075
1.136,-0.060
1.140,-0.040
1.144,-0.025
1.148,-0.010
1.152,0.025
1.156,0.060
1.160,0.060
1.164,0.050
1.168,0.010
1.172,-0.025
1.176,-0.025
1.180,-0.025
1.184,-0.020
1.188,-0.015
1.192,-0.055
1.196,-0.085
1.200,-0.090
1.204,-0.095
1.208,-0.095
1.212,-0.100
1.216,-0.120
1.220,-0.135
1.224,-0.135
1.228,-0.135
1.232,-0.135
1.236,-0.130
1.240,-0.110
1.244,-0.095
1.248,-0.100
1.252,-0.125
1.256,-0.165
1.260,-0.070
1.264,0.145
1.268,0.410
1.272,0.715
1.276,1.090
1.280,1.510
1.284,1.940
1.288,2.375
1.292,2.050
1.296,1.440
1.300,0.715
1.304,-0.040
1.308,-0.415
1.312,-0.705
1.316,-0.710
1.320,-0.670
1.324,-0.585
1.328,-0.500
1.332,-0.430
1.336,-0.355
1.340,-0.305
1.344,-0.255
1.348,-0.225
1.352,-0.195
1.356,-0.180
1.360,-0.165
1.364,-0.160
1.368,-0.155
1.372,-0.160
1.376,-0.165
1.380,-0.160
1.384,-0.155
1.388,-0.145
1.392,-0.135
1.396,-0.140
1.400,-0.145
1.404,-0.140
1.408,-0.135
1.412,-0.135
1.416,-0.135
1.420,-0.130
1.424,-0.125
1.428,-0.120
1.432,-0.115
1.436,-0.110
1.440,-0.105
1.444,-0.110
1.448,-0.110
1.452,-0.100
1.456,-0.090
1.460,-0.080
1.464,-0.080
1.468,-0.090
1.472,-0.090
1.476,-0.080
1.480,-0.070
1.484,-0.060
1.488,-0.055
1.492,-0.060
1.496,-0.055
1.500,-0.065
1.504,-0.030
1.508,-0.025
1.512,-0.020
1.516,-0.015
1.520,0.005
1.524,0.025
1.528,0.030
1.532,0.035
1.536,0.050
1.540,0.065
1.544,0.070
1.548,0.075
1.552,0.085
1.556,0.095
1.560,0.105
1.564,0.115
1.568,0.110
1.572,0.105
1.576,0.115
1.580,0.125
1.584,0.110
1.588,0.105
1.592,0.105
1.596,0.095
1.600,0.075
1.604,0.060
1.608,0.045
1.612,0.035
1.616,0.030
1.620,0.005
1.624,-0.025
1.628,-0.045
1.632,-0.060
1.636,-0.070
1.640,-0.080
1.644,-0.090
1.648,-0.100
1.652,-0.105
1.656,-0.105
1.660,-0.105
1.664,-0.105
1.668,-0.105
1.672,-0.105
1.676,-0.100
1.680,-0.095
1.684,-0.105
1.688,-0.115
1.692,-0.115
1.696,-0.115
1.700,-0.115
1.704,-0.115
1.708,-0.115
1.712,-0.115
1.716,-0.105
1.720,-0.095
1.724,-0.100
1.728,-0.105
1.732,-0.105
1.736,-0.105
1.740,-0.095
1.744,-0.085
1.748,-0.085
1.752,-0.085
1.756,-0.085
1.760,-0.080
1.764,-0.070
1.768,-0.070
1.772,-0.080
1.776,-0.085
1.780,-0.080
1.784,-0.075
1.788,-0.080
1.792,-0.085
1.796,-0.080
1.800,-0.075
1.804,-0.070
1.808,-0.065
1.812,-0.070
1.816,-0.075
1.820,-0.080
1.824,-0.085
1.828,-0.080
1.832,-0.080
1.836,-0.095
1.840,-0.090
1.844,-0.085
1.848,-0.090
1.852,-0.095
1.856,-0.095
1.860,-0.095
1.864,-0.090
1.868,-0.085
1.872,-0.085
1.876,-0.085
1.880,-0.085
1.884,-0.085
1.888,-0.080
1.892,-0.075
1.896,-0.085
1.900,-0.095
1.904,-0.090
1.908,-0.085
1.912,-0.085
1.916,-0.085
1.920,-0.085
1.924,-0.085
1.928,-0.080
1.932,-0.075
1.936,-0.075
1.940,-0.075
1.944,-0.075
1.948,-0.065
1.952,-0.050
1.956,-0.045
1.960,-0.040
1.964,-0.035
1.968,-0.030
1.972,-0.010
1.976,0.010
1.980,0.030
1.984,0.050
1.988,0.075
1.992,0.100
1.996,0.095
2.000,0.105
2.004,0.050
2.008,0.025
2.012,0.020
2.016,0.015
2.020,0.010
2.024,0.005
2.028,-0.020
2.032,-0.045
2.036,-0.055
2.040,-0.065
2.044,-0.060
2.048,-0.060
2.052,-0.080
2.056,-0.095
2.060,-0.095
2.064,-0.095
2.068,-0.100
2.072,-0.100
2.076,-0.085
2.080,-0.075
2.084,-0.075
2.088,-0.100
2.092,-0.150
2.096,-0.095
2.100,0.045
2.104,0.275
2.108,0.555
2.112,0.890
2.116,1.255
2.120,1.750
2.124,2.295
2.128,2.255
2.132,2.005
2.136,1.200
2.140,0.245
2.144,-0.250
2.148,-0.665
2.152,-0.685
2.156,-0.650
2.160,-0.565
2.164,-0.480
2.168,-0.390
2.172,-0.305
2.176,-0.255
2.180,-0.205
2.184,-0.180
2.188,-0.155
2.192,-0.150
2.196,-0.145
2.200,-0.145
2.204,-0.145
2.208,-0.145
2.212,-0.145
2.216,-0.135
2.220,-0.125
2.224,-0.125
2.228,-0.125
2.232,-0.120
2.236,-0.110
2.240,-0.095
2.244,-0.085
2.248,-0.095
2.252,-0.105
2.256,-0.105
2.260,-0.105
2.264,-0.100
2.268,-0.095
2.272,-0.100
2.276,-0.100
2.280,-0.090
2.284,-0.085
2.288,-0.085
2.292,-0.080
2.296,-0.070
2.300,-0.060
2.304,-0.050
2.308,-0.045
2.312,-0.045
2.316,-0.045
2.320,-0.045
2.324,-0.040
2.328,-0.030
2.332,-0.025
2.336,-0.015
2.340,0.000
2.344,0.015
2.348,0.020
2.352,0.025
2.356,0.045
2.360,0.065
2.364,0.080
2.368,0.095
2.372,0.100
2.376,0.105
2.380,0.115
2.384,0.125
2.388,0.135
2.392,0.145
2.396,0.150
2.400,0.155
2.404,0.160
2.408,0.165
2.412,0.165
2.416,0.165
2.420,0.150
2.424,0.145
2.428,0.140
2.432,0.125
2.436,0.095
2.440,0.070
2.444,0.045
2.448,0.025
2.452,0.005
2.456,-0.020
2.460,-0.045
2.464,-0.060
2.468,-0.070
2.472,-0.080
2.476,-0.090
2.480,-0.095
2.484,-0.100
2.488,-0.105
2.492,-0.100
2.496,-0.095
2.500,-0.095
2.504,-0.120
2.508,-0.135
2.512,-0.130
2.516,-0.125
2.520,-0.130
2.524,-0.135
2.528,-0.135
2.532,-0.135
2.536,-0.135
2.540,-0.135
2.544,-0.135
2.548,-0.135
2.552,-0.130
2.556,-0.125
2.560,-0.120
2.564,-0.115
2.568,-0.120
2.572,-0.125
2.576,-0.115
2.580,-0.105
2.584,-0.120
2.588,-0.120
2.592,-0.105
2.596,-0.095
2.600,-0.100
2.604,-0.105
2.608,-0.100
2.612,-0.095
2.616,-0.095
2.620,-0.095
2.624,-0.095
2.628,-0.095
2.632,-0.100
2.636,-0.105
2.640,-0.100
2.644,-0.100
2.648,-0.110
2.652,-0.115
2.656,-0.110
2.660,-0.105
2.664,-0.105
2.668,-0.110
2.672,-0.115
2.676,-0.110
2.680,-0.105
2.684,-0.110
2.688,-0.115
2.692,-0.120
2.696,-0.125
2.700,-0.125
2.704,-0.125
2.708,-0.130
2.712,-0.135
2.716,-0.135
2.720,-0.135
2.724,-0.130
2.728,-0.125
2.732,-0.125
2.736,-0.125
2.740,-0.120
2.744,-0.115
2.748,-0.120
2.752,-0.125
2.756,-0.130
2.760,-0.130
2.764,-0.120
2.768,-0.120
2.772,-0.135
2.776,-0.140
2.780,-0.130
2.784,-0.125
2.788,-0.125
2.792,-0.125
2.796,-0.125
2.800,-0.125
2.804,-0.120
2.808,-0.110
2.812,-0.100
2.816,-0.090
2.820,-0.080
2.824,-0.070
2.828,-0.060
2.832,-0.055
2.836,-0.065
2.840,-0.025
2.844,0.015
2.848,0.020
2.852,0.025
2.856,0.050
2.860,0.070
2.864,0.035
2.868,0.005
2.872,-0.015
2.876,-0.035
2.880,-0.035
2.884,-0.035
2.888,-0.050
2.892,-0.070
2.896,-0.095
2.900,-0.115
2.904,-0.115
2.908,-0.115
2.912,-0.125
2.916,-0.135
2.920,-0.150
2.924,-0.150
2.928,-0.140
2.932,-0.135
2.936,-0.135
2.940,-0.130
2.944,-0.115
2.948,-0.140
2.952,-0.195
2.956,-0.135
2.960,-0.025
2.964,0.225
2.968,0.520
2.972,0.860
2.976,1.215
2.980,1.725
2.984,2.260
2.988,2.170
2.992,2.005
2.996,1.120
3.000,1.995
3.004,-0.280
3.008,-0.735
3.012,-0.725
3.016,-0.710
3.020,-0.630
3.024,-0.545
3.028,-0.460
3.032,-0.380
3.036,-0.335
3.040,-0.290
3.044,-0.245
3.048,-0.215
3.052,-0.210
3.056,-0.205
3.060,-0.205
3.064,-0.205
3.068,-0.210
3.072,-0.210
3.076,-0.195
3.080,-0.185
3.084,-0.200
3.088,-0.200
3.092,-0.190
3.096,-0.185
3.100,-0.180
3.104,-0.175
3.108,-0.170
3.112,-0.165
3.116,-0.165
3.120,-0.165
3.124,-0.160
3.128,-0.155
3.132,-0.160
3.136,-0.160
3.140,-0.150
3.144,-0.145
3.148,-0.150
3.152,-0.150
3.156,-0.140
3.160,-0.135
3.164,-0.135
3.168,-0.130
3.172,-0.125
3.176,-0.105
3.180,-0.085
3.184,-0.090
3.188,-0.095
3.192,-0.090
3.196,-0.085
3.200,-0.070
3.204,-0.055
3.208,-0.050
3.212,-0.045
3.216,-0.030
3.220,-0.015
3.224,0.005
3.228,0.015
3.232,0.025
3.236,0.045
3.240,0.070
3.244,0.085
3.248,0.090
3.252,0.095
3.256,0.100
3.260,0.110
3.264,0.120
3.268,0.120
3.272,0.110
3.276,0.110
3.280,0.120
3.284,0.115
3.288,0.095
3.292,0.080
3.296,0.070
3.300,0.045
3.304,0.020
3.308,-0.005
3.312,-0.030
3.316,-0.065
3.320,-0.100
3.324,-0.105
3.328,-0.105
3.332,-0.125
3.336,-0.155
3.340,-0.150
3.344,-0.145
3.348,-0.160
3.352,-0.175
3.356,-0.175
3.360,-0.175
3.364,-0.165
3.368,-0.155
3.372,-0.160
3.376,-0.165
3.380,-0.175
3.384,-0.185
3.388,-0.175
3.392,-0.165
3.396,-0.175
3.400,-0.185
3.404,-0.180
3.408,-0.175
3.412,-0.175
3.416,-0.175
3.420,-0.175
3.424,-0.170
3.428,-0.160
3.432,-0.155
3.436,-0.160
3.440,-0.165
3.444,-0.165
3.448,-0.160
3.452,-0.150
3.456,-0.150
3.460,-0.160
3.464,-0.165
3.468,-0.160
3.472,-0.155
3.476,-0.150
3.480,-0.145
3.484,-0.145
3.488,-0.145
3.492,-0.140
3.496,-0.135
3.500,-0.135
3.504,-0.150
3.508,-0.155
3.512,-0.155
3.516,-0.155
3.520,-0.165
3.524,-0.175
3.528,-0.160
3.532,-0.145
3.536,-0.150
3.540,-0.155
3.544,-0.160
3.548,-0.165
3.552,-0.160
3.556,-0.155
3.560,-0.160
3.564,-0.165
3.568,-0.170
3.572,-0.175
3.576,-0.165
3.580,-0.160
3.584,-0.175
3.588,-0.180
3.592,-0.170
3.596,-0.165
3.600,-0.170
3.604,-0.175
3.608,-0.170
3.612,-0.165
3.616,-0.165
3.620,-0.165
3.624,-0.170
3.628,-0.175
3.632,-0.170
3.636,-0.165
3.640,-0.160
3.644,-0.160
3.648,-0.170
3.652,-0.175
3.656,-0.175
3.660,-0.175
3.664,-0.170
3.668,-0.160
3.672,-0.155
3.676,-0.150
3.680,-0.145
3.684,-0.150
3.688,-0.155
3.692,-0.140
3.696,-0.125
3.700,-0.115
3.704,-0.105
3.708,-0.105
3.712,-0.100
3.716,-0.080
3.720,-0.060
3.724,-0.035
3.728,-0.010
3.732,0.015
3.736,0.035
3.740,0.025
3.744,0.005
3.748,-0.025
3.752,-0.055
3.756,-0.075
3.760,-0.080
3.764,-0.070
3.768,-0.085
3.772,-0.130
3.776,-0.145
3.780,-0.145
3.784,-0.145
3.788,-0.150
3.792,-0.160
3.796,-0.170
3.800,-0.175
3.804,-0.175
3.808,-0.170
3.812,-0.160
3.816,-0.155
3.820,-0.160
3.824,-0.160
3.828,-0.150
3.832,-0.195
3.836,-0.255
3.840,-0.030
3.844,0.200
3.848,0.520
3.852,0.855
3.856,1.320
3.860,1.775
3.864,2.155
3.868,2.300
3.872,1.480
3.876,0.705
3.880,0.050
3.884,-0.470
3.888,-0.660
3.892,-0.765
3.896,-0.705
3.900,-0.635
3.904,-0.560
3.908,-0.485
3.912,-0.405
3.916,-0.345
3.920,-0.290
3.924,-0.255
3.928,-0.230
3.932,-0.215
3.936,-0.220
3.940,-0.225
3.944,-0.220
3.948,-0.215
3.952,-0.210
3.956,-0.205
3.960,-0.210
3.964,-0.210
3.968,-0.200
3.972,-0.195
3.976,-0.195
3.980,-0.195
3.984,-0.190
3.988,-0.180
3.992,-0.170
3.996,-0.165
4.000,-0.165
4.004,-0.170
4.008,-0.175
4.012,-0.170
4.016,-0.165
4.020,-0.170
4.024,-0.175
4.028,-0.160
4.032,-0.145
4.036,-0.145
4.040,-0.145
4.044,-0.135
4.048,-0.125
4.052,-0.120
4.056,-0.115
4.060,-0.105
4.064,-0.095
4.068,-0.095
4.072,-0.090
4.076,-0.075
4.080,-0.065
4.084,-0.080
4.088,-0.075
4.092,-0.055
4.096,-0.035
4.100,-0.015
4.104,0.000
4.108,0.015
4.112,0.030
4.116,0.040
4.120,0.045
4.124,0.050
4.128,0.055
4.132,0.060
4.136,0.070
4.140,0.080
4.144,0.085
4.148,0.080
4.152,0.075
4.156,0.075
4.160,0.075
4.164,0.075
4.168,0.060
4.172,0.045
4.176,0.045
4.180,0.045
4.184,0.010
4.188,-0.025
4.192,-0.045
4.196,-0.065
4.200,-0.075
4.204,-0.085
4.208,-0.105
4.212,-0.125
4.216,-0.125
4.220,-0.125
4.224,-0.135
4.228,-0.145
4.232,-0.145
4.236,-0.145
4.240,-0.140
4.244,-0.135
4.248,-0.135
4.252,-0.135
4.256,-0.140
4.260,-0.145
4.264,-0.145
4.268,-0.145
4.272,-0.150
4.276,-0.155
4.280,-0.150
4.284,-0.145
4.288,-0.150
4.292,-0.150
4.296,-0.140
4.300,-0.135
4.304,-0.135
4.308,-0.130
4.312,-0.120
4.316,-0.115
4.320,-0.120
4.324,-0.120
4.328,-0.110
4.332,-0.105
4.336,-0.115
4.340,-0.110
4.344,-0.105
4.348,-0.105
4.352,-0.105
4.356,-0.100
4.360,-0.095
4.364,-0.090
4.368,-0.085
4.372,-0.090
4.376,-0.095
4.380,-0.095
4.384,-0.095
4.388,-0.095
4.392,-0.095
4.396,-0.100
4.400,-0.105
4.404,-0.110
4.408,-0.115
4.412,-0.115
4.416,-0.115
4.420,-0.110
4.424,-0.100
4.428,-0.090
4.432,-0.090
4.436,-0.105
4.440,-0.115
4.444,-0.110
4.448,-0.105
4.452,-0.105
4.456,-0.110
4.460,-0.120
4.464,-0.120
4.468,-0.110
4.472,-0.110
4.476,-0.120
4.480,-0.120
4.484,-0.110
4.488,-0.100
4.492,-0.090
4.496,-0.085
4.500,-0.085
4.504,-0.100
4.508,-0.105
4.512,-0.100
4.516,-0.095
4.520,-0.095
4.524,-0.095
4.528,-0.075
4.532,-0.055
4.536,-0.055
4.540,-0.055
4.544,-0.050
4.548,-0.040
4.552,-0.015
4.556,0.010
4.560,0.035
4.564,0.060
4.568,0.080
4.572,0.090
4.576,0.075
4.580,0.050
4.584,0.005
4.588,-0.010
4.592,0.000
4.596,0.000
4.600,-0.010
4.604,-0.035
4.608,-0.070
4.612,-0.075
4.616,-0.060
4.620,-0.070
4.624,-0.095
4.628,-0.115
4.632,-0.130
4.636,-0.130
4.640,-0.120
4.644,-0.115
4.648,-0.115
4.652,-0.100
4.656,-0.080
4.660,-0.125
4.664,-0.180
4.668,-0.070
4.672,0.050
4.676,0.330
4.680,0.605
4.684,0.910
4.688,1.240
4.692,1.775
4.696,2.230
4.700,2.265
4.704,2.080
4.708,1.100
4.712,0.240
4.716,-0.285
4.720,-0.655
4.724,-0.690
4.728,-0.690
4.732,-0.605
4.736,-0.520
4.740,-0.420
4.744,-0.345
4.748,-0.300
4.752,-0.255
4.756,-0.215
4.760,-0.190
4.764,-0.180
4.768,-0.175
4.772,-0.180
4.776,-0.180
4.780,-0.160
4.784,-0.155
4.788,-0.155
4.792,-0.155
4.796,-0.150
4.800,-0.145
4.804,-0.140
4.808,-0.135
4.812,-0.130
4.816,-0.125
4.820,-0.130
4.824,-0.125
4.828,-0.110
4.832,-0.110
4.836,-0.125
4.840,-0.115
4.844,-0.105
4.848,-0.105
4.852,-0.105
4.856,-0.095
4.860,-0.085
4.864,-0.085
4.868,-0.085
4.872,-0.080
4.876,-0.075
4.880,-0.070
4.884,-0.065
4.888,-0.060
4.892,-0.055
4.896,-0.055
4.900,-0.055
4.904,-0.045
4.908,-0.035
4.912,-0.025
4.916,-0.015
4.920,0.000
4.924,0.015
4.928,0.035
4.932,0.045
4.936,0.045
4.940,0.050
4.944,0.060
4.948,0.070
4.952,0.080
4.956,0.085
4.960,0.090
4.964,0.095
4.968,0.100
4.972,0.105
4.976,0.110
4.980,0.120
4.984,0.130
4.988,0.135
4.992,0.135
4.996,0.125
5.000,0.135
5.004,0.085
5.008,0.065
5.012,0.050
5.016,0.035
5.020,0.005
5.024,-0.025
5.028,-0.035
5.032,-0.045
5.036,-0.060
5.040,-0.075
5.044,-0.085
5.048,-0.095
5.052,-0.095
5.056,-0.095
5.060,-0.095
5.064,-0.100
5.068,-0.115
5.072,-0.125
5.076,-0.120
5.080,-0.115
5.084,-0.130
5.088,-0.130
5.092,-0.120
5.096,-0.120
5.100,-0.130
5.104,-0.135
5.108,-0.130
5.112,-0.125
5.116,-0.120
5.120,-0.115
5.124,-0.115
5.128,-0.115
5.132,-0.115
5.136,-0.115
5.140,-0.110
5.144,-0.105
5.148,-0.110
5.152,-0.115
5.156,-0.110
5.160,-0.105
5.164,-0.105
5.168,-0.095
5.172,-0.085
5.176,-0.075
5.180,-0.065
5.184,-0.070
5.188,-0.075
5.192,-0.085
5.196,-0.095
5.200,-0.090
5.204,-0.085
5.208,-0.090
5.212,-0.095
5.216,-0.095
5.220,-0.095
5.224,-0.095
5.228,-0.095
5.232,-0.095
5.236,-0.095
5.240,-0.100
5.244,-0.105
5.248,-0.095
5.252,-0.090
5.256,-0.100
5.260,-0.105
5.264,-0.100
5.268,-0.095
5.272,-0.095
5.276,-0.095
5.280,-0.100
5.284,-0.105
5.288,-0.110
5.292,-0.115
5.296,-0.110
5.300,-0.105
5.304,-0.105
5.308,-0.105
5.312,-0.105
5.316,-0.105
5.320,-0.110
5.324,-0.115
5.328,-0.110
5.332,-0.105
5.336,-0.105
5.340,-0.105
5.344,-0.105
5.348,-0.105
5.352,-0.105
5.356,-0.080
5.360,-0.055
5.364,-0.040
5.368,-0.025
5.372,-0.030
5.376,-0.035
5.380,-0.020
5.384,0.000
5.388,0.020
5.392,0.040
5.396,0.055
5.400,0.060
5.404,0.040
5.408,0.020
5.412,0.000
5.416,-0.015
5.420,-0.015
5.424,-0.015
5.428,-0.010
5.432,-0.025
5.436,-0.065
5.440,-0.085
5.444,-0.090
5.448,-0.100
5.452,-0.110
5.456,-0.125
5.460,-0.140
5.464,-0.145
5.468,-0.140
5.472,-0.135
5.476,-0.130
5.480,-0.120
5.484,-0.110
5.488,-0.105
5.492,-0.105
5.496,-0.130
5.500,-0.105
5.504,0.060
5.508,0.290
5.512,0.610
5.516,0.950
5.520,1.485
5.524,1.980
5.528,2.265
5.532,2.315
5.536,1.350
5.540,0.460
5.544,-0.165
5.548,-0.630
5.552,-0.690
5.556,-0.705
5.560,-0.610
5.564,-0.520
5.568,-0.450
5.572,-0.380
5.576,-0.320
5.580,-0.275
5.584,-0.240
5.588,-0.220
5.592,-0.205
5.596,-0.195
5.600,-0.195
5.604,-0.195
5.608,-0.190
5.612,-0.185
5.616,-0.180
5.620,-0.170
5.624,-0.160
5.628,-0.155
5.632,-0.160
5.636,-0.165
5.640,-0.160
5.644,-0.160
5.648,-0.170
5.652,-0.170
5.656,-0.160
5.660,-0.155
5.664,-0.155
5.668,-0.150
5.672,-0.145
5.676,-0.140
5.680,-0.135
5.684,-0.135
5.688,-0.135
5.692,-0.130
5.696,-0.125
5.700,-0.120
5.704,-0.115
5.708,-0.115
5.712,-0.115
5.716,-0.105
5.720,-0.095
5.724,-0.085
5.728,-0.075
5.732,-0.075
5.736,-0.070
5.740,-0.050
5.744,-0.035
5.748,-0.030
5.752,-0.025
5.756,-0.020
5.760,-0.005
5.764,0.020
5.768,0.035
5.772,0.035
5.776,0.050
5.780,0.075
5.784,0.085
5.788,0.085
5.792,0.090
5.796,0.100
5.800,0.115
5.804,0.130
5.808,0.135
5.812,0.135
5.816,0.125
5.820,0.110
5.824,0.105
5.828,0.105
5.832,0.080
5.836,0.045
5.840,0.030
5.844,0.015
5.848,-0.015
5.852,-0.045
5.856,-0.060
5.860,-0.075
5.864,-0.090
5.868,-0.105
5.872,-0.125
5.876,-0.145
5.880,-0.160
5.884,-0.175
5.888,-0.180
5.892,-0.185
5.896,-0.190
5.900,-0.195
5.904,-0.195
5.908,-0.195
5.912,-0.195
5.916,-0.195
5.920,-0.195
5.924,-0.190
5.928,-0.180
5.932,-0.180
5.936,-0.195
5.940,-0.205
5.944,-0.200
5.948,-0.195
5.952,-0.195
5.956,-0.195
5.960,-0.195
5.964,-0.195
5.968,-0.195
5.972,-0.195
5.976,-0.190
5.980,-0.180
5.984,-0.170
5.988,-0.160
5.992,-0.150
5.996,-0.150
6.000,-0.145
6.004,-0.165
6.008,-0.165
6.012,-0.160
6.016,-0.155
6.020,-0.160
6.024,-0.165
6.028,-0.155
6.032,-0.145
6.036,-0.150
6.040,-0.155
6.044,-0.150
6.048,-0.145
6.052,-0.145
6.056,-0.145
6.060,-0.145
6.064,-0.145
6.068,-0.155
6.072,-0.165
6.076,-0.155
6.080,-0.150
6.084,-0.165
6.088,-0.170
6.092,-0.160
6.096,-0.155
6.100,-0.160
6.104,-0.165
6.108,-0.165
6.112,-0.165
6.116,-0.160
6.120,-0.155
6.124,-0.160
6.128,-0.165
6.132,-0.160
6.136,-0.155
6.140,-0.155
6.144,-0.160
6.148,-0.170
6.152,-0.175
6.156,-0.170
6.160,-0.165
6.164,-0.160
6.168,-0.160
6.172,-0.165
6.176,-0.155
6.180,-0.145
6.184,-0.150
6.188,-0.155
6.192,-0.155
6.196,-0.155
6.200,-0.155
6.204,-0.155
6.208,-0.155
6.212,-0.155
6.216,-0.155
6.220,-0.155
6.224,-0.150
6.228,-0.145
6.232,-0.150
6.236,-0.150
6.240,-0.135
6.244,-0.120
6.248,-0.105
6.252,-0.095
6.256,-0.095
6.260,-0.090
6.264,-0.075
6.268,-0.055
6.272,-0.035
6.276,-0.020
6.280,0.000
6.284,0.015
6.288,0.030
6.292,0.020
6.296,-0.005
6.300,-0.035
6.304,-0.060
6.308,-0.060
6.312,-0.050
6.316,-0.060
6.320,-0.080
6.324,-0.100
6.328,-0.120
6.332,-0.130
6.336,-0.145
6.340,-0.150
6.344,-0.155
6.348,-0.165
6.352,-0.175
6.356,-0.170
6.360,-0.165
6.364,-0.155
6.368,-0.145
6.372,-0.135
6.376,-0.135
6.380,-0.180
6.384,-0.190
6.388,-0.100
6.392,0.040
6.396,0.265
6.400,0.530
6.404,0.860
6.408,1.280
6.412,1.815
6.416,2.120
6.420,2.175
6.424,1.725
6.428,0.820
6.432,0.125
6.436,-0.420
6.440,-0.665
6.444,-0.730
6.448,-0.700
6.452,-0.610
6.456,-0.535
6.460,-0.465
6.464,-0.400
6.468,-0.340
6.472,-0.300
6.476,-0.265
6.480,-0.245
6.484,-0.230
6.488,-0.220
6.492,-0.210
6.496,-0.205
6.500,-0.205
6.504,-0.210
6.508,-0.215
6.512,-0.205
6.516,-0.195
6.520,-0.205
6.524,-0.215
6.528,-0.200
6.532,-0.185
6.536,-0.190
6.540,-0.195
6.544,-0.185
6.548,-0.175
6.552,-0.175
6.556,-0.175
6.560,-0.170
6.564,-0.165
6.568,-0.170
6.572,-0.170
6.576,-0.155
6.580,-0.145
6.584,-0.160
6.588,-0.160
6.592,-0.150
6.596,-0.145
6.600,-0.140
6.604,-0.130
6.608,-0.120
6.612,-0.110
6.616,-0.100
6.620,-0.095
6.624,-0.095
6.628,-0.095
6.632,-0.090
6.636,-0.075
6.640,-0.060
6.644,-0.050
6.648,-0.040
6.652,-0.025
6.656,-0.010
6.660,0.010
6.664,0.030
6.668,0.045
6.672,0.055
6.676,0.075
6.680,0.095
6.684,0.095
6.688,0.095
6.692,0.100
6.696,0.105
6.700,0.115
6.704,0.125
6.708,0.115
6.712,0.105
6.716,0.100
6.720,0.090
6.724,0.070
6.728,0.050
6.732,0.030
6.736,0.010
6.740,-0.005
6.744,-0.025
6.748,-0.055
6.752,-0.085
6.756,-0.105
6.760,-0.115
6.764,-0.120
6.768,-0.130
6.772,-0.145
6.776,-0.155
6.780,-0.155
6.784,-0.155
6.788,-0.160
6.792,-0.165
6.796,-0.170
6.800,-0.175
6.804,-0.170
6.808,-0.165
6.812,-0.170
6.816,-0.175
6.820,-0.175
6.824,-0.175
6.828,-0.170
6.832,-0.170
6.836,-0.185
6.840,-0.180
6.844,-0.175
6.848,-0.185
6.852,-0.195
6.856,-0.185
6.860,-0.175
6.864,-0.165
6.868,-0.155
6.872,-0.160
6.876,-0.165
6.880,-0.165
6.884,-0.165
6.888,-0.165
6.892,-0.165
6.896,-0.165
6.900,-0.165
6.904,-0.160
6.908,-0.155
6.912,-0.155
6.916,-0.155
6.920,-0.155
6.924,-0.150
6.928,-0.135
6.932,-0.130
6.936,-0.145
6.940,-0.155
6.944,-0.160
6.948,-0.165
6.952,-0.160
6.956,-0.160
6.960,-0.170
6.964,-0.175
6.968,-0.175
6.972,-0.170
6.976,-0.160
6.980,-0.155
6.984,-0.160
6.988,-0.165
6.992,-0.165
6.996,-0.165
7.000,-0.165
7.004,-0.170
7.008,-0.165
7.012,-0.170
7.016,-0.175
7.020,-0.180
7.024,-0.185
7.028,-0.180
7.032,-0.175
7.036,-0.180
7.040,-0.185
7.044,-0.180
7.048,-0.175
7.052,-0.170
7.056,-0.165
7.060,-0.170
7.064,-0.175
7.068,-0.180
7.072,-0.185
7.076,-0.175
7.080,-0.165
7.084,-0.180
7.088,-0.180
7.092,-0.170
7.096,-0.165
7.100,-0.170
7.104,-0.175
7.108,-0.170
7.112,-0.165
7.116,-0.160
7.120,-0.155
7.124,-0.160
7.128,-0.165
7.132,-0.165
7.136,-0.150
7.140,-0.130
7.144,-0.125
7.148,-0.125
7.152,-0.125
7.156,-0.120
7.160,-0.090
7.164,-0.060
7.168,-0.035
7.172,-0.015
7.176,0.015
7.180,0.045
7.184,0.010
7.188,-0.025
7.192,-0.050
7.196,-0.075
7.200,-0.075
7.204,-0.075
7.208,-0.085
7.212,-0.100
7.216,-0.125
7.220,-0.145
7.224,-0.150
7.228,-0.155
7.232,-0.150
7.236,-0.150
7.240,-0.165
7.244,-0.175
7.248,-0.185
7.252,-0.195
7.256,-0.195
7.260,-0.190
7.264,-0.175
7.268,-0.165
7.272,-0.170
7.276,-0.195
7.280,-0.230
7.284,-0.105
7.288,0.100
7.292,0.380
7.296,0.685
7.300,1.130
7.304,1.610
7.308,2.010
7.312,2.395
7.316,1.665
7.320,0.765
7.324,0.135
7.328,-0.475
7.332,-0.645
7.336,-0.805
7.340,-0.725
7.344,-0.645
7.348,-0.565
7.352,-0.490
7.356,-0.425
7.360,-0.360
7.364,-0.315
7.368,-0.275
7.372,-0.255
7.376,-0.235
7.380,-0.240
7.384,-0.245
7.388,-0.245
7.392,-0.245
7.396,-0.245
7.400,-0.240
7.404,-0.225
7.408,-0.215
7.412,-0.210
7.416,-0.205
7.420,-0.205
7.424,-0.205
7.428,-0.200
7.432,-0.195
7.436,-0.190
7.440,-0.185
7.444,-0.185
7.448,-0.180
7.452,-0.170
7.456,-0.170
7.460,-0.180
7.464,-0.185
7.468,-0.180
7.472,-0.170
7.476,-0.160
7.480,-0.150
7.484,-0.140
7.488,-0.130
7.492,-0.120
7.496,-0.115
7.500,-0.115
7.504,-0.110
7.508,-0.105
7.512,-0.095
7.516,-0.085
7.520,-0.090
7.524,-0.095
7.528,-0.070
7.532,-0.045
7.536,-0.040
7.540,-0.035
7.544,-0.020
7.548,-0.005
7.552,0.005
7.556,0.020
7.560,0.035
7.564,0.045
7.568,0.040
7.572,0.040
7.576,0.055
7.580,0.065
7.584,0.065
7.588,0.070
7.592,0.080
7.596,0.080
7.600,0.065
7.604,0.055
7.608,0.055
7.612,0.055
7.616,0.050
7.620,0.035
7.624,0.020
7.628,0.000
7.632,-0.025
7.636,-0.045
7.640,-0.060
7.644,-0.075
7.648,-0.090
7.652,-0.100
7.656,-0.110
7.660,-0.115
7.664,-0.120
7.668,-0.130
7.672,-0.135
7.676,-0.135
7.680,-0.135
7.684,-0.145
7.688,-0.155
7.692,-0.155
7.696,-0.155
7.700,-0.155
7.704,-0.155
7.708,-0.155
7.712,-0.155
7.716,-0.150
7.720,-0.145
7.724,-0.140
7.728,-0.135
7.732,-0.135
7.736,-0.135
7.740,-0.125
7.744,-0.115
7.748,-0.120
7.752,-0.130
7.756,-0.140
7.760,-0.140
7.764,-0.125
7.768,-0.115
7.772,-0.115
7.776,-0.115
7.780,-0.110
7.784,-0.105
7.788,-0.110
7.792,-0.110
7.796,-0.100
7.800,-0.095
7.804,-0.100
7.808,-0.105
7.812,-0.100
7.816,-0.100
7.820,-0.110
7.824,-0.110
7.828,-0.100
7.832,-0.105
7.836,-0.125
7.840,-0.110
7.844,-0.095
7.848,-0.095
7.852,-0.095
7.856,-0.105
7.860,-0.115
7.864,-0.115
7.868,-0.115
7.872,-0.110
7.876,-0.105
7.880,-0.115
7.884,-0.125
7.888,-0.115
7.892,-0.105
7.896,-0.110
7.900,-0.115
7.904,-0.110
7.908,-0.105
7.912,-0.105
7.916,-0.105
7.920,-0.105
7.924,-0.105
7.928,-0.100
7.932,-0.095
7.936,-0.095
7.940,-0.095
7.944,-0.095
7.948,-0.095
7.952,-0.095
7.956,-0.095
7.960,-0.100
7.964,-0.095
7.968,-0.080
7.972,-0.065
7.976,-0.050
7.980,-0.045
7.984,-0.045
7.988,-0.040
7.992,-0.030
7.996,-0.015
8.000,-0.025
8.004,0.025
8.008,0.045
8.012,0.070
8.016,0.095
8.020,0.075
8.024,0.055
8.028,0.030
8.032,0.005
8.036,0.000
8.040,-0.005
8.044,0.000
8.048,0.000
8.052,-0.030
8.056,-0.055
8.060,-0.065
8.064,-0.075
8.068,-0.080
8.072,-0.085
8.076,-0.095
8.080,-0.110
8.084,-0.125
8.088,-0.130
8.092,-0.115
8.096,-0.105
8.100,-0.105
8.104,-0.095
8.108,-0.075
8.112,-0.100
8.116,-0.155
8.120,-0.060
8.124,0.100
8.128,0.360
8.132,0.645
8.136,1.015
8.140,1.400
8.144,1.905
8.148,2.435
8.152,2.095
8.156,1.645
8.160,0.785
8.164,-0.100
8.168,-0.435
8.172,-0.755
8.176,-0.690
8.180,-0.620
8.184,-0.550
8.188,-0.475
8.192,-0.395
8.196,-0.320
8.200,-0.275
8.204,-0.230
8.208,-0.200
8.212,-0.175
8.216,-0.165
8.220,-0.155
8.224,-0.155
8.228,-0.155
8.232,-0.150
8.236,-0.145
8.240,-0.135
8.244,-0.125
8.248,-0.130
8.252,-0.135
8.256,-0.130
8.260,-0.125
8.264,-0.120
8.268,-0.120
8.272,-0.130
8.276,-0.130
8.280,-0.120
8.284,-0.115
8.288,-0.110
8.292,-0.105
8.296,-0.100
8.300,-0.095
8.304,-0.090
8.308,-0.080
8.312,-0.070
8.316,-0.070
8.320,-0.080
8.324,-0.075
8.328,-0.060
8.332,-0.055
8.336,-0.065
8.340,-0.050
8.344,-0.035
8.348,-0.035
8.352,-0.035
8.356,-0.015
8.360,0.005
8.364,0.020
8.368,0.035
8.372,0.040
8.376,0.045
8.380,0.045
8.384,0.045
8.388,0.060
8.392,0.075
8.396,0.080
8.400,0.090
8.404,0.105
8.408,0.115
8.412,0.120
8.416,0.125
8.420,0.125
8.424,0.135
8.428,0.155
8.432,0.160
8.436,0.150
8.440,0.140
8.444,0.130
8.448,0.120
8.452,0.110
8.456,0.095
8.460,0.070
8.464,0.050
8.468,0.030
8.472,0.015
8.476,0.000
8.480,-0.015
8.484,-0.030
8.488,-0.035
8.492,-0.040
8.496,-0.055
8.500,-0.045
8.504,-0.085
8.508,-0.095
8.512,-0.090
8.516,-0.085
8.520,-0.090
8.524,-0.095
8.528,-0.095
8.532,-0.095
8.536,-0.100
8.540,-0.105
8.544,-0.100
8.548,-0.095
8.552,-0.090
8.556,-0.085
8.560,-0.090
8.564,-0.095
8.568,-0.105
8.572,-0.110
8.576,-0.095
8.580,-0.085
8.584,-0.090
8.588,-0.095
8.592,-0.090
8.596,-0.085
8.600,-0.085
8.604,-0.080
8.608,-0.070
8.612,-0.065
8.616,-0.065
8.620,-0.065
8.624,-0.065
8.628,-0.065
8.632,-0.065
8.636,-0.065
8.640,-0.060
8.644,-0.060
8.648,-0.070
8.652,-0.070
8.656,-0.060
8.660,-0.055
8.664,-0.060
8.668,-0.065
8.672,-0.065
8.676,-0.065
8.680,-0.065
8.684,-0.070
8.688,-0.075
8.692,-0.070
8.696,-0.065
8.700,-0.065
8.704,-0.065
8.708,-0.075
8.712,-0.085
8.716,-0.080
8.720,-0.075
8.724,-0.075
8.728,-0.075
8.732,-0.075
8.736,-0.075
8.740,-0.070
8.744,-0.065
8.748,-0.070
8.752,-0.075
8.756,-0.075
8.760,-0.075
8.764,-0.070
8.768,-0.070
8.772,-0.080
8.776,-0.085
8.780,-0.080
8.784,-0.070
8.788,-0.060
8.792,-0.040
8.796,-0.015
8.800,-0.005
8.804,-0.005
8.808,0.000
8.812,0.010
8.816,0.030
8.820,0.050
8.824,0.065
8.828,0.080
8.832,0.085
8.836,0.095
8.840,0.070
8.844,0.045
8.848,0.020
8.852,-0.005
8.856,0.010
8.860,0.025
8.864,0.010
8.868,-0.010
8.872,-0.040
8.876,-0.065
8.880,-0.065
8.884,-0.065
8.888,-0.075
8.892,-0.090
8.896,-0.105
8.900,-0.115
8.904,-0.105
8.908,-0.095
8.912,-0.090
8.916,-0.085
8.920,-0.080
8.924,-0.085
8.928,-0.105
8.932,-0.090
8.936,-0.035
8.940,0.140
8.944,0.390
8.948,0.695
8.952,1.020
8.956,1.515
8.960,2.080
8.964,2.250
8.968,2.295
8.972,1.480
8.976,0.460
8.980,-0.140
8.984,-0.675
8.988,-0.695
8.992,-0.660
8.996,-0.565
9.000,-0.655
9.004,-0.380
9.008,-0.295
9.012,-0.250
9.016,-0.205
9.020,-0.180
9.024,-0.155
9.028,-0.155
9.032,-0.155
9.036,-0.150
9.040,-0.145
9.044,-0.145
9.048,-0.145
9.052,-0.140
9.056,-0.135
9.060,-0.130
9.064,-0.125
9.068,-0.130
9.072,-0.135
9.076,-0.125
9.080,-0.115
9.084,-0.130
9.088,-0.130
9.092,-0.115
9.096,-0.105
9.100,-0.110
9.104,-0.115
9.108,-0.110
9.112,-0.105
9.116,-0.105
9.120,-0.095
9.124,-0.080
9.128,-0.080
9.132,-0.090
9.136,-0.085
9.140,-0.070
9.144,-0.065
9.148,-0.070
9.152,-0.065
9.156,-0.050
9.160,-0.045
9.164,-0.040
9.168,-0.030
9.172,-0.025
9.176,-0.010
9.180,0.005
9.184,0.015
9.188,0.025
9.192,0.040
9.196,0.055
9.200,0.070
9.204,0.085
9.208,0.095
9.212,0.105
9.216,0.110
9.220,0.115
9.224,0.125
9.228,0.135
9.232,0.140
9.236,0.150
9.240,0.165
9.244,0.175
9.248,0.170
9.252,0.160
9.256,0.150
9.260,0.140
9.264,0.125
9.268,0.100
9.272,0.075
9.276,0.055
9.280,0.035
9.284,0.005
9.288,-0.025
9.292,-0.035
9.296,-0.040
9.300,-0.055
9.304,-0.070
9.308,-0.085
9.312,-0.100
9.316,-0.115
9.320,-0.130
9.324,-0.135
9.328,-0.130
9.332,-0.135
9.336,-0.155
9.340,-0.145
9.344,-0.135
9.348,-0.145
9.352,-0.155
9.356,-0.150
9.360,-0.145
9.364,-0.145
9.368,-0.145
9.372,-0.145
9.376,-0.145
9.380,-0.150
9.384,-0.155
9.388,-0.145
9.392,-0.135
9.396,-0.145
9.400,-0.155
9.404,-0.145
9.408,-0.135
9.412,-0.135
9.416,-0.135
9.420,-0.130
9.424,-0.120
9.428,-0.110
9.432,-0.105
9.436,-0.110
9.440,-0.115
9.444,-0.115
9.448,-0.115
9.452,-0.110
9.456,-0.105
9.460,-0.110
9.464,-0.115
9.468,-0.110
9.472,-0.105
9.476,-0.105
9.480,-0.105
9.484,-0.110
9.488,-0.115
9.492,-0.110
9.496,-0.105
9.500,-0.105
9.504,-0.115
9.508,-0.115
9.512,-0.120
9.516,-0.125
9.520,-0.125
9.524,-0.125
9.528,-0.125
9.532,-0.125
9.536,-0.125
9.540,-0.125
9.544,-0.125
9.548,-0.125
9.552,-0.120
9.556,-0.115
9.560,-0.115
9.564,-0.115
9.568,-0.120
9.572,-0.125
9.576,-0.120
9.580,-0.115
9.584,-0.120
9.588,-0.120
9.592,-0.110
9.596,-0.110
9.600,-0.120
9.604,-0.125
9.608,-0.125
9.612,-0.125
9.616,-0.125
9.620,-0.125
9.624,-0.125
9.628,-0.125
9.632,-0.125
9.636,-0.105
9.640,-0.080
9.644,-0.075
9.648,-0.075
9.652,-0.065
9.656,-0.050
9.660,-0.040
9.664,-0.030
9.668,0.000
9.672,0.025
9.676,0.045
9.680,0.065
9.684,0.060
9.688,0.055
9.692,0.015
9.696,-0.015
9.700,-0.025
9.704,-0.035
9.708,-0.030
9.712,-0.030
9.716,-0.060
9.720,-0.085
9.724,-0.105
9.728,-0.115
9.732,-0.110
9.736,-0.110
9.740,-0.125
9.744,-0.135
9.748,-0.140
9.752,-0.145
9.756,-0.145
9.760,-0.140
9.764,-0.130
9.768,-0.125
9.772,-0.120
9.776,-0.145
9.780,-0.195
9.784,-0.135
9.788,-0.010
9.792,0.230
9.796,0.510
9.800,0.865
9.804,1.240
9.808,1.755
9.812,2.305
9.816,1.990
9.820,1.550
9.824,0.765
9.828,-0.045
9.832,-0.410
9.836,-0.755
9.840,-0.705
9.844,-0.655
9.848,-0.580
9.852,-0.510
9.856,-0.425
9.860,-0.350
9.864,-0.300
9.868,-0.250
9.872,-0.220
9.876,-0.195
9.880,-0.195
9.884,-0.195
9.888,-0.195
9.892,-0.195
9.896,-0.200
9.900,-0.200
9.904,-0.185
9.908,-0.175
9.912,-0.180
9.916,-0.185
9.920,-0.180
9.924,-0.170
9.928,-0.155
9.932,-0.145
9.936,-0.150
9.940,-0.155
9.944,-0.155
9.948,-0.155
9.952,-0.150
9.956,-0.145
9.960,-0.145
9.964,-0.145
9.968,-0.140
9.972,-0.135
9.976,-0.130
9.980,-0.125
9.984,-0.125
9.988,-0.115
9.992,-0.100
9.996,-0.095
